351
373
402
418
426
440
446
450
467
469
462
467
466
465
464
468
470
458
455
459
452
442
439
442
440
438
452
445
439
440
421
415
410
417
425
436
444
461
481
469
463
477
479
476
474
486
482
486
483
476
478
487
499
505
498
495
492
452
378
415
667
824
737
560
523
509
493
486
488
482
479
477
473
474
468
466
457
453
446
434
419
400
389
375
367
365
374
382
404
435
454
475
485
495
502
495
496
499
494
491
476
472
486
467
457
460
467
464
449
426
425
421
429
439
444
449
454
460
453
440
428
428
424
423
427
438
445
422
420
433
445
460
467
466
471
473
463
449
438
433
434
429
344
274
386
658
782
659
513
473
457
447
446
441
440
434
434
429
427
421
416
403
398
393
379
368
359
350
337
331
332
340
359
391
408
429
446
456
463
469
471
470
478
472
466
454
464
459
451
449
452
444
443
440
436
431
430
432
432
430
438
441
441
445
424
421
440
439
447
455
475
469
466
470
481
473
470
472
479
476
472
476
469
458
458
452
382
285
334
608
812
749
560
491
473
453
452
445
438
431
424
422
417
411
413
413
406
398
391
377
365
349
337
333
331
336
351
384
412
432
454
465
476
485
471
475
479
479
481
480
475
478
476
466
465
467
464
461
461
468
468
467
471
470
467
461
464
463
451
455
456
454
459
461
473
470
460
458
472
478
482
474
467
477
475
472
476
478
472
460
409
309
241
458
723
706
537
484
462
454
454
457
454
452
454
448
451
448
443
436
431
429
412
391
386
372
364
358
355
356
369
389
417
450
467
468
477
478
478
474
475
474
479
475
472
468
469
467
467
474
465
450
446
442
440
446
455
457
459
459
451
443
434
433
430
426
439
458
449
444
466
478
476
478
479
475
477
476
472
471
473
471
440
340
264
419
709
816
683
526
482
463
459
457
449
449
453
435
430
434
430
422
419
416
404
392
378
369
353
348
348
349
355
379
408
439
466
487
495
502
507
505
503
502
503
500
498
495
490
484
487
477
479
479
474
474
471
472
471
467
464
452
446
450
445
444
439
455
455
453
456
470
468
476
480
476
479
478
473
479
480
473
459
394
274
301
568
773
744
567
477
451
444
454
447
448
439
445
451
446
445
437
440
435
416
408
389
370
341
331
348
354
340
368
410
439
462
485
499
505
509
514
517
519
518
512
506
510
504
497
486
485
477
472
481
479
482
476
473
475
474
468
457
451
450
450
445
448
459
455
450
459
463
464
468
466
457
464
467
469
472
464
458
446
358
259
356
656
830
704
519
473
457
451
445
436
433
432
425
419
425
420
410
409
401
387
381
371
354
338
326
324
326
331
353
387
419
444
460
467
471
481
480
479
485
487
483
476
473
468
463
456
455
457
455
458
454
463
461
455
461
467
458
453
447
446
442
451
464
453
450
435
444
450
434
434
430
435
442
446
454
461
469
460
457
451
331
211
370
703
831
664
486
455
434
435
428
428
434
428
427
417
412
423
413
415
398
384
340
316
320
313
306
306
314
326
346
374
398
425
444
446
446
455
459
463
450
451
457
461
459
454
453
448
451
449
444
443
444
451
451
445
445
450
449
447
441
440
428
428
419
433
446
432
422
433
440
446
455
458
466
461
471
460
451
461
449
443
349
253
352
644
809
684
505
465
430
433
432
417
416
411
406
410
403
392
403
396
390
377
360
350
337
327
317
315
307
304
327
364
392
426
463
470
479
476
477
485
484
483
480
471
460
453
452
456
458
458
457
458
463
467
463
463
464
465
462
450
454
451
441
430
430
438
438
451
456
450
453
464
464
465
461
465
462
460
464
462
458
457
449
407
295
269
492
768
779
593
485
462
448
445
439
438
440
431
432
433
438
433
419
415
410
401
392
377
365
357
355
356
351
361
375
404
436
464
478
491
495
494
500
497
495
492
494
483
484
480
477
477
480
485
480
473
483
483
476
480
478
480
485
487
479
478
473
460
463
456
454
464
472
469
459
459
471
469
475
474
467
471
470
475
470
473
472
459
411
318
327
562
778
767
593
492
469
451
441
440
439
426
421
423
419
427
431
418
419
415
406
395
387
367
363
352
339
342
361
382
406
432
452
473
483
493
487
507
515
510
516
510
510
506
491
490
494
485
486
490
471
471
480
478
484
489
488
490
484
475
471
458
449
439
446
447
448
464
456
455
468
471
474
484
476
480
479
481
478
474
471
473
463
380
293
364
631
786
681
515
479
462
440
439
430
425
424
424
420
417
409
416
408
400
398
390
377
373
362
356
360
371
371
375
396
431
453
478
480
478
486
489
476
476
469
457
461
460
451
449
453
463
463
458
459
466
457
447
455
449
441
447
450
455
450
447
438
429
426
430
433
440
439
437
429
438
447
454
461
456
454
460
457
457
459
459
453
424
320
284
471
708
751
613
483
457
449
436
432
425
430
428
424
418
422
416
413
417
412
407
401
391
380
366
362
370
370
377
382
421
441
450
476
486
478
490
491
491
495
490
484
476
474
464
451
456
462
447
446
456
456
455
456
448
442
444
452
440
442
448
441
432
431
431
409
431
442
437
444
452
460
467
465
471
467
470
475
467
463
460
459
416
296
280
515
750
752
566
467
452
436
423
421
420
422
415
411
405
402
402
398
389
379
375
361
357
340
332
342
343
334
347
369
396
425
448
458
473
476
475
482
482
464
476
467
463
458
463
462
456
449
461
460
451
436
434
428
438
448
449
446
452
449
440
440
437
432
427
444
436
437
443
445
449
459
463
464
465
463
465
461
460
451
452
445
383
286
292
547
763
736
567
467
453
446
435
436
436
431
429
428
422
421
420
409
401
401
393
383
363
351
347
340
346
343
354
370
389
390
392
424
458
467
477
475
472
468
462
472
470
451
450
444
440
439
451
440
449
451
440
440
444
438
454
471
464
467
471
449
439
438
433
434
459
474
477
484
495
511
516
519
518
516
521
512
515
526
524
492
447
347
408
685
778
644
514
463
438
415
422
423
429
428
441
446
433
426
416
404
385
370
373
372
364
357
359
373
372
356
363
389
406
432
461
467
469
471
475
476
478
475
472
472
462
460
446
446
457
464
464
462
471
460
459
462
459
464
466
446
450
452
443
430
429
429
428
439
432
433
457
454
455
459
458
444
448
444
448
443
435
424
352
288
390
626
712
642
517
459
457
448
451
446
446
457
444
438
452
446
458
443
437
420
398
378
364
353
345
347
341
373
446
463
485
497
506
499
504
486
500
518
524
519
510
484
491
493
502
523
551
522
502
513
499
491
483
462
429
417
415
391
409
415
423
424
437
462
454
453
454
459
461
476
478
460
448
442
430
420
425
423
384
276
296
553
738
715
566
517
531
464
448
441
414
390
377
363
344
354
412
428
439
433
411
393
385
379
373
369
360
365
376
399
420
432
456
468
475
467
457
455
470
489
492
481
498
508
508
508
507
499
502
500
502
497
509
493
492
485
488
480
481
475
474
481
479
483
489
486
494
507
506
503
499
505
507
510
525
523
505
495
452
347
331
566
798
788
602
510
493
484
476
473
467
468
462
458
439
423
425
413
389
381
376
364
359
350
365
369
364
372
373
392
430
467
481
479
463
466
491
506
502
496
495
491
490
494
496
520
515
489
487
490
482
483
481
476
461
455
454
452
445
437
443
450
449
457
461
462
461
476
479
485
489
486
487
492
482
475
472
463
417
293
259
465
747
800
628
525
504
499
463
455
446
436
431
428
427
423
418
410
395
390
381
369
353
337
330
326
318
329
331
350
399
436
448
465
466
468
477
487
490
483
493
488
478
473
461
451
446
443
446
455
464
466
476
465
446
454
460
451
442
447
434
437
436
431
434
436
429
442
460
475
477
484
487
478
475
470
470
469
464
456
398
294
316
579
755
722
569
484
472
451
451
445
440
445
443
447
442
441
431
431
436
424
413
397
378
369
352
344
343
348
360
392
421
450
464
477
471
474
492
490
489
499
501
498
493
487
478
464
477
485
475
471
472
464
465
470
470
476
475
471
463
457
449
444
428
429
436
437
440
455
472
463
463
461
452
460
461
463
465
465
467
451
363
257
329
625
796
711
540
478
463
452
452
450
445
443
435
434
426
428
420
415
412
399
384
369
354
337
328
322
315
324
352
386
421
446
464
475
486
487
478
477
475
474
476
470
469
480
476
471
465
456
454
452
448
458
455
467
483
462
474
480
478
478
468
455
452
443
433
438
450
462
459
452
464
474
463
472
472
473
473
480
488
479
483
475
443
335
274
441
722
793
658
517
477
472
465
453
451
454
448
453
451
451
449
443
440
429
423
409
387
372
360
345
331
327
350
371
410
451
470
485
501
508
510
518
522
515
511
521
512
504
503
508
512
508
500
500
489
493
497
486
489
494
498
496
483
479
484
483
484
480
463
460
459
458
472
477
464
463
480
475
468
477
478
476
475
477
476
472
470
468
451
368
254
289
621
779
611
508
491
467
468
460
448
446
447
443
440
435
435
428
422
420
411
399
382
368
363
348
348
352
354
365
402
427
433
451
467
463
465
473
458
453
450
448
461
456
462
467
453
433
429
422
418
416
424
441
448
443
430
437
445
461
460
452
452
446
445
443
444
433
438
431
432
439
440
447
463
483
495
502
499
494
493
496
491
489
494
485
473
421
304
296
567
802
800
615
518
492
478
480
470
477
473
472
474
469
467
468
462
468
452
433
416
401
383
358
355
352
350
365
408
448
470
480
503
513
511
510
502
495
494
487
481
474
468
454
452
458
466
462
460
454
451
448
452
457
463
466
465
457
462
468
475
476
468
453
461
451
444
448
445
443
446
437
440
459
465
467
468
473
477
479
481
485
484
474
470
440
336
202
308
673
743
551
503
470
452
453
448
438
442
437
435
437
437
429
426
417
416
412
402
389
383
366
355
354
354
360
377
406
426
451
475
480
473
496
490
487
486
477
451
431
423
435
441
455
459
446
449
449
449
448
446
456
453
440
429
430
447
436
422
413
433
433
432
441
426
419
413
399
417
419
421
438
434
440
446
435
440
438
433
422
426
441
456
461
453
452
434
375
283
247
545
686
589
517
474
465
451
443
446
441
444
441
425
417
412
402
393
398
393
376
368
359
358
339
347
339
333
344
349
376
390
400
416
430
425
429
421
398
404
415
428
413
415
430
470
457
451
457
443
437
404
349
378
410
405
424
449
447
432
433
441
446
444
448
438
416
396
383
389
384
391
397
408
423
427
423
430
423
438
439
449
437
434
443
438
425
359
274
308
552
679
633
504
445
431
413
423
430
426
422
424
426
419
424
428
433
426
426
424
416
395
378
364
350
340
336
342
363
397
418
447
463
477
486
489
481
471
475
472
464
460
455
451
452
448
445
446
452
461
463
460
461
467
474
474
473
466
473
477
478
475
471
460
461
466
460
455
442
447
457
460
466
480
491
495
497
490
500
496
489
500
501
495
489
477
384
311
433
688
797
676
539
502
484
471
466
470
465
453
458
453
441
442
439
441
432
412
387
373
360
351
341
357
361
354
373
385
419
450
477
487
478
471
464
474
490
491
502
497
484
480
476
464
470
481
469
470
479
479
472
475
486
487
496
496
497
492
492
499
500
504
497
501
504
500
508
511
519
511
505
516
519
521
528
532
528
525
524
519
514
512
509
450
318
304
572
801
769
595
515
484
462
449
441
438
422
422
431
433
435
435
431
412
404
396
390
362
363
351
354
372
370
359
387
421
438
451
479
487
492
492
490
489
469
464
473
465
471
451
459
462
463
465
475
488
483
497
488
481
486
499
503
480
480
497
499
492
488
486
481
479
478
483
492
478
471
481
489
488
484
487
482
478
487
483
479
484
470
422
280
259
534
775
756
580
471
441
440
438
426
432
440
428
413
378
362
363
373
383
389
384
370
359
357
342
335
335
340
354
368
404
430
453
469
481
497
507
520
515
507
512
501
481
469
465
444
412
418
427
415
419
446
452
467
493
479
462
462
454
441
439
432
426
415
412
419
424
433
451
450
450
458
478
478
469
471
470
468
471
462
464
474
457
433
328
201
298
647
731
545
488
455
444
442
435
435
434
435
417
399
400
405
398
382
375
375
370
363
354
351
347
353
357
349
370
403
438
467
486
489
476
473
494
486
476
469
471
473
471
471
471
464
455
451
444
444
448
450
452
450
459
448
448
457
458
454
462
454
441
434
423
427
434
436
455
446
443
456
466
472
511
538
503
475
441
396
367
369
358
321
234
178
436
759
735
547
498
466
448
455
468
451
420
396
384
378
377
404
440
440
433
419
401
390
377
377
354
353
374
382
377
400
415
428
433
438
434
427
423
423
427
438
444
446
432
428
423
370
359
362
373
376
381
391
408
421
425
434
441
447
464
456
412
403
421
394
371
377
387
411
417
420
426
433
436
452
456
476
472
440
452
445
384
377
331
288
379
593
633
568
491
461
466
467
476
475
460
454
432
440
424
425
427
426
419
414
401
395
398
388
391
401
408
411
390
400
412
423
443
456
461
465
477
477
462
462
449
443
443
435
434
414
414
413
415
414
425
428
435
415
418
426
422
423
431
431
407
407
399
411
421
425
437
435
447
453
475
476
479
473
484
495
506
494
498
496
478
371
318
537
741
735
619
537
510
503
506
498
489
491
488
480
475
466
458
456
448
427
416
412
402
371
377
377
369
380
394
408
427
437
463
483
474
488
488
479
494
506
483
485
488
477
465
451
444
452
459
456
453
459
465
466
467
483
487
480
476
463
455
458
459
464
468
469
461
483
477
479
486
490
481
479
481
480
480
475
436
297
267
497
784
795
595
505
477
459
455
440
434
437
436
433
419
433
436
412
405
403
393
385
375
363
344
336
332
331
349
372
395
422
442
457
471
470
472
480
468
462
463
459
454
456
454
454
453
460
450
447
454
459
476
497
470
448
444
450
422
385
364
370
370
404
408
415
434
453
450
458
458
460
472
462
455
474
455
418
331
275
424
677
733
638
517
463
445
421
409
381
360
355
358
395
404
419
431
418
400
387
372
372
356
346
355
385
383
374
400
412
418
427
431
448
451
452
460
471
465
473
468
455
456
450
445
442
444
456
453
462
456
391
351
361
355
346
371
388
406
416
436
449
452
443
435
443
444
452
460
463
478
494
455
459
458
428
343
301
424
624
674
587
484
467
465
471
463
459
471
476
480
455
415
431
414
403
403
393
386
393
383
371
376
366
371
393
418
440
448
466
466
485
492
496
471
440
465
458
431
413
439
434
435
444
443
459
463
457
465
454
445
450
443
423
443
430
428
461
417
400
417
409
391
404
415
431
442
445
464
460
453
449
419
364
337
477
625
623
552
472
461
460
445
462
459
457
415
425
411
410
424
448
465
438
432
407
370
361
365
383
400
387
396
427
443
471
458
446
452
467
465
469
454
417
426
408
376
400
423
412
445
458
419
407
394
418
438
437
452
436
405
408
402
421
432
429
421
441
459
449
449
444
433
434
437
436
434
384
327
390
610
667
579
495
476
463
459
454
451
458
455
447
448
462
450
450
452
440
416
380
383
374
361
342
350
358
365
393
439
464
486
506
519
534
564
537
499
482
477
483
462
432
438
459
491
487
466
453
468
470
454
444
448
443
455
478
475
495
501
498
484
472
476
484
490
452
434
412
352
344
515
658
642
554
487
475
472
468
457
466
466
449
456
462
439
432
441
430
428
446
405
390
390
356
356
361
354
367
381
403
421
436
453
443
458
469
461
456
459
455
461
437
427
450
457
460
468
454
469
475
451
455
471
480
472
481
492
503
512
516
514
516
509
511
499
497
467
366
336
503
710
741
593
483
474
465
445
455
459
458
453
460
448
453
445
444
437
440
434
415
407
388
375
375
381
372
380
413
434
444
463
485
489
478
475
485
488
486
492
462
442
438
423
411
424
425
409
424
398
395
427
422
433
441
455
459
464
483
474
471
470
459
451
451
446
377
288
344
632
764
671
566
527
504
494
492
496
499
505
496
494
495
490
486
472
462
462
444
417
405
389
380
376
373
386
413
431
451
471
487
493
499
488
493
492
485
471
467
468
466
465
464
465
453
445
445
438
428
435
442
440
445
473
484
477
480
489
484
483
493
491
490
479
441
321
292
518
775
774
623
529
498
482
479
474
471
465
464
457
459
452
439
439
438
420
403
393
381
365
355
351
348
351
369
396
423
447
456
466
471
471
472
472
466
462
467
462
463
460
459
454
444
447
441
435
430
422
409
422
428
421
424
449
464
453
456
466
463
457
448
451
459
443
404
282
279
519
768
763
572
472
453
428
422
422
423
417
415
409
401
401
400
394
397
391
377
367
342
330
329
321
317
337
354
380
415
435
444
452
460
467
465
458
466
463
455
457
453
446
448
443
440
442
443
451
455
452
453
444
447
453
448
448
451
459
454
449
439
438
443
447
457
467
473
481
484
482
484
479
475
474
472
443
328
280
453
718
791
621
502
469
455
450
445
443
442
434
420
424
411
412
408
405
400
392
371
350
337
334
333
336
337
352
383
414
440
464
477
474
475
474
477
475
476
482
482
477
468
460
457
462
464
466
458
459
461
461
457
467
466
464
470
468
459
463
455
445
441
441
440
429
432
437
438
440
464
473
474
483
485
486
486
491
485
480
459
349
296
488
748
795
640
519
487
472
460
460
464
458
453
449
440
434
438
433
433
420
403
389
371
367
353
340
333
337
353
387
411
432
452
464
468
467
474
477
474
464
467
474
474
455
457
463
464
456
461
457
460
464
465
467
455
454
451
440
437
441
433
427
427
441
444
439
447
455
460
468
468
463
469
465
465
467
463
436
331
259
403
692
796
646
505
469
451
438
430
429
432
431
425
420
420
425
421
413
415
408
388
368
357
347
338
339
333
356
378
409
445
467
472
483
491
500
505
500
492
483
491
483
482
501
508
495
485
487
490
508
499
515
507
502
508
505
497
493
495
495
493
488
490
506
501
500
514
498
485
491
499
504
515
517
515
508
495
425
280
312
610
815
756
576
501
480
450
438
443
439
430
389
380
404
398
404
404
387
375
368
367
352
334
309
299
295
319
343
348
393
427
432
446
433
424
442
459
443
436
439
435
422
427
428
428
421
428
442
439
432
416
409
412
406
411
407
404
404
404
393
391
392
402
415
411
415
430
427
436
432
426
441
443
442
454
450
450
388
288
346
632
777
687
516
467
435
433
422
429
432
426
430
435
427
419
426
426
404
395
398
384
363
351
359
358
354
366
384
415
448
469
489
496
513
516
519
513
499
509
513
500
485
486
476
465
454
441
431
433
444
430
441
460
464
465
476
460
461
458
451
459
444
444
445
439
428
441
445
454
447
413
399
413
428
422
430
418
295
222
398
675
755
607
465
428
409
396
377
384
382
373
386
395
375
379
385
381
380
372
352
332
316
296
287
272
283
316
355
360
388
424
434
447
448
447
437
448
447
429
434
423
415
415
409
410
424
419
411
415
415
420
420
425
423
416
418
418
396
398
397
407
409
406
413
416
409
412
412
417
423
412
404
408
399
403
403
390
349
204
184
438
704
712
511
417
391
366
364
356
353
349
350
342
337
330
329
329
326
305
292
275
253
249
244
235
236
245
263
299
329
355
380
393
399
407
413
410
411
413
413
404
391
396
393
391
388
391
387
387
384
391
397
388
400
400
399
404
400
394
387
389
384
386
395
402
409
403
405
424
433
429
432
434
441
436
434
435
432
424
358
230
238
524
772
731
542
459
432
421
415
415
403
394
394
386
390
384
386
380
365
362
356
338
321
316
305
291
289
294
315
339
369
390
414
429
432
433
450
446
439
439
439
436
431
421
417
426
412
406
413
421
417
418
424
414
412
414
411
412
410
418
412
420
420
422
408
359
364
348
346
361
373
360
381
388
385
413
410
410
414
426
438
364
226
224
484
668
632
481
414
388
396
395
386
379
394
390
389
394
384
402
399
412
397
365
363
337
328
331
330
316
302
318
352
373
387
420
438
453
447
460
439
423
418
403
396
392
389
384
396
390
390
396
411
424
426
434
410
417
434
430
429
408
410
407
408
403
400
392
401
413
411
404
417
424
429
438
455
449
442
433
427
422
416
394
315
264
376
602
649
587
471
447
446
430
431
443
433
435
441
434
444
451
455
465
461
452
444
443
416
402
401
399
376
376
393
408
438
466
483
497
506
512
512
523
511
512
508
508
502
501
504
497
492
492
495
498
499
488
495
495
489
487
479
477
478
479
475
472
483
488
485
498
513
507
517
521
520
520
526
529
513
513
503
455
345
351
581
805
805
622
529
514
498
496
500
489
484
478
474
467
469
459
458
452
446
440
427
428
410
391
398
398
400
423
446
475
495
507
513
523
526
528
518
526
524
510
514
511
505
504
507
504
496
496
511
504
506
505
513
507
500
507
496
487
483
477
474
471
469
477
489
477
483
508
504
499
502
497
491
480
483
487
497
489
451
342
321
520
778
813
628
528
500
471
473
483
473
471
473
455
457
459
451
441
439
437
422
411
403
391
382
381
380
385
389
414
444
464
485
496
502
507
506
508
503
505
501
500
501
503
496
482
487
486
483
499
495
497
498
504
507
501
489
482
478
475
463
462
461
472
483
487
488
494
501
504
514
521
514
520
525
517
518
509
475
370
332
542
797
826
650
542
512
498
501
486
475
470
464
459
457
464
458
452
445
439
430
421
405
384
382
375
370
367
380
399
428
459
487
517
526
514
523
517
507
488
487
483
489
485
481
487
491
499
496
504
509
504
498
499
503
496
490
486
498
466
448
449
441
478
485
467
473
465
490
480
488
492
479
460
465
478
455
467
411
245
247
479
700
753
594
502
446
442
446
423
433
406
375
400
401
378
389
373
367
400
376
404
351
344
344
315
300
320
325
341
387
414
436
461
434
481
469
454
452
431
421
451
437
405
428
416
412
421
417
438
412
415
416
422
413
403
404
404
378
385
382
407
404
398
422
427
419
431
436
438
464
450
443
450
434
425
372
271
284
532
719
666
509
446
440
437
427
422
420
414
416
408
405
397
384
392
375
374
351
342
330
334
310
305
308
320
344
379
408
427
444
454
458
468
463
456
449
449
443
438
439
433
426
421
426
425
426
416
421
427
426
419
422
400
379
375
383
367
355
356
368
372
376
393
378
402
403
391
404
402
381
378
380
374
327
209
184
403
624
661
482
369
353
347
355
322
320
334
337
332
320
321
315
299
287
276
258
262
241
213
203
207
203
220
236
273
290
299
320
339
337
344
360
360
359
361
359
357
341
335
325
318
328
334
328
331
332
321
321
290
242
348
301
326
354
365
348
341
345
350
364
392
420
428
428
427
425
438
425
424
429
417
399
317
256
365
624
720
605
479
454
448
449
448
441
433
420
416
419
415
417
396
368
354
338
324
329
343
344
338
335
331
335
363
390
401
422
429
436
430
439
445
443
444
442
432
430
436
433
429
428
424
422
423
428
432
432
439
439
431
422
411
412
406
401
403
424
442
444
447
463
470
468
473
473
462
466
468
471
477
475
442
334
331
546
780
789
628
504
483
470
471
467
472
472
471
465
466
466
462
455
465
459
455
436
428
424
416
421
412
422
446
466
505
538
553
545
562
565
572
571
565
550
541
541
527
526
525
513
513
504
509
505
497
502
507
500
499
500
483
471
475
474
470
460
477
476
462
478
503
497
500
498
499
508
513
511
510
500
486
471
371
305
458
725
818
673
527
504
478
471
471
455
461
462
441
440
441
435
429
420
410
396
388
369
354
344
344
349
355
364
390
431
455
462
484
488
494
498
500
501
500
504
505
498
491
482
485
483
488
488
487
494
499
502
491
482
487
483
485
481
470
469
461
458
462
472
482
468
469
496
493
487
485
481
486
487
488
483
484
487
459
353
286
420
708
798
660
520
480
470
459
457
467
477
475
476
477
469
470
467
461
449
442
428
403
396
395
381
377
391
400
419
451
485
512
538
547
542
554
556
550
556
552
554
556
555
547
543
549
548
541
538
541
536
537
550
544
539
536
535
539
536
519
517
513
506
508
521
527
516
507
529
542
532
531
528
531
534
528
525
523
520
509
447
324
323
568
812
807
612
518
502
474
485
474
458
469
465
459
467
459
471
450
443
440
430
403
383
369
358
359
349
358
370
400
442
461
483
495
497
510
516
519
519
513
515
511
502
496
494
480
475
488
500
503
501
507
511
500
512
506
512
516
509
500
494
486
492
486
496
494
493
507
495
497
518
514
510
518
504
517
521
525
512
502
503
491
397
298
381
697
863
743
568
515
488
486
480
467
461
465
469
464
451
455
464
437
442
422
410
405
387
379
376
373
360
379
380
419
443
473
474
496
505
494
504
492
481
487
483
476
480
485
478
464
467
462
476
471
476
472
480
480
492
495
489
489
495
500
490
505
489
478
490
487
505
496
490
509
518
526
547
535
524
540
545
540
542
534
532
513
388
294
460
784
860
711
583
532
521
512
504
504
497
496
483
484
473
464
460
445
440
424
411
391
365
364
358
358
365
381
402
424
461
479
507
512
517
522
527
525
510
507
503
507
489
485
481
488
478
482
483
485
486
490
487
483
476
480
485
487
488
481
463
457
456
455
446
459
473
472
470
479
491
487
489
490
487
486
494
478
477
481
474
380
241
282
599
827
729
536
483
462
446
438
438
434
431
431
423
410
404
406
394
387
383
372
351
321
329
320
312
319
320
345
383
419
436
462
473
466
458
450
449
459
460
453
451
448
446
452
444
433
442
432
435
444
440
438
444
449
448
457
457
462
459
440
444
436
431
431
429
440
449
451
445
432
451
460
447
446
469
464
457
449
432
455
445
424
321
235
376
702
811
664
499
486
473
461
437
430
446
445
448
445
447
444
439
435
440
416
373
371
355
316
334
335
330
338
364
408
431
451
466
483
494
508
509
496
495
488
496
483
480
475
470
465
462
457
443
435
436
435
439
457
463
463
459
445
450
462
461
441
422
415
400
403
405
388
386
408
409
417
429
423
417
423
426
416
419
421
406
335
234
299
576
747
663
491
444
430
413
406
409
399
403
396
394
387
384
376
369
370
361
351
343
331
319
308
317
314
319
340
371
403
433
438
463
468
467
461
460
452
457
461
448
441
448
438
442
434
425
434
438
429
433
431
448
452
442
449
464
453
443
459
449
444
440
436
433
441
445
438
435
437
444
449
452
451
457
448
443
447
445
438
435
375
262
285
532
752
708
535
457
438
435
431
430
422
422
423
408
408
407
410
408
402
399
391
373
369
362
349
355
356
346
355
385
401
424
444
457
475
467
463
470
459
460
460
453
453
452
451
459
452
454
462
458
460
468
470
464
464
474
470
468
468
465
466
466
462
454
456
450
455
457
459
460
461
485
487
472
478
466
485
490
479
478
481
467
422
328
344
555
759
750
589
508
472
466
459
466
459
454
457
447
445
438
432
430
419
416
415
404
376
374
378
372
372
377
394
399
419
453
471
482
480
488
489
492
488
484
481
467
468
465
462
453
443
443
454
453
453
454
450
444
443
459
452
449
463
446
432
442
432
431
422
432
446
450
452
461
459
463
459
457
453
466
473
469
461
453
451
424
350
312
428
625
707
605
465
444
442
438
432
439
443
443
432
429
419
424
410
404
400
398
389
381
366
365
355
348
348
359
377
399
432
451
463
467
465
474
484
491
481
486
482
472
456
455
475
470
477
483
496
503
506
500
500
492
497
493
482
490
485
488
476
487
492
483
506
493
496
501
504
517
516
517
515
516
511
509
505
506
499
428
343
449
703
799
661
535
512
491
484
478
475
461
457
452
443
455
436
436
432
421
411
400
391
371
378
364
366
368
371
392
433
455
459
469
490
495
482
480
471
473
480
472
463
454
436
426
428
450
479
464
455
460
472
453
459
464
458
454
442
434
435
419
401
421
438
425
413
417
433
436
440
440
434
430
425
421
423
417
402
319
218
310
587
734
636
472
420
403
396
397
395
382
383
392
383
367
372
370
353
334
331
317
284
287
283
273
286
294
295
342
350
390
409
416
437
432
440
443
441
448
443
442
439
431
422
416
428
423
421
438
430
434
432
422
426
433
432
434
432
435
418
408
413
417
429
430
430
443
444
440
436
433
435
423
418
415
419
418
404
294
257
457
711
753
591
459
428
421
408
405
413
401
396
390
385
389
391
384
388
383
376
356
356
339
321
316
311
320
338
375
417
451
460
480
505
514
527
530
516
514
516
501
473
487
449
397
430
471
473
486
459
445
448
440
423
419
435
422
422
425
439
432
453
441
446
472
505
531
534
538
521
543
549
530
540
525
495
456
331
310
540
743
757
595
461
476
472
479
484
466
431
446
444
445
476
476
496
499
491
472
439
425
402
374
376
372
353
380
439
462
493
536
516
512
517
535
509
496
501
497
470
469
471
492
512
516
515
517
531
520
513
522
514
507
495
485
497
492
519
544
545
546
554
552
544
542
559
571
577
560
569
572
551
552
476
377
410
667
848
778
626
584
571
574
568
561
549
552
545
530
531
537
550
542
530
511
499
471
472
441
426
420
382
414
449
484
517
524
540
569
577
585
596
576
585
557
559
557
531
534
535
510
480
498
487
487
499
520
486
499
504
469
442
414
413
446
442
416
468
495
452
451
441
439
457
476
447
449
462
438
338
244
367
594
657
585
467
442
434
425
411
408
403
415
425
432
410
417
391
380
373
345
322
347
315
287
310
287
265
279
370
373
376
408
441
439
467
467
437
464
516
523
533
542
536
533
532
537
542
527
535
534
538
526
503
449
452
411
300
283
561
771
712
547
537
504
467
486
476
493
512
504
495
497
487
504
513
478
462
457
434
428
429
432
398
396
411
440
463
462
493
524
538
534
521
539
558
547
558
547
525
524
532
529
516
515
517
529
519
513
506
522
537
548
552
523
506
514
505
501
528
545
557
532
520
504
482
483
451
441
446
447
451
471
476
477
474
453
473
474
485
481
477
489
489
490
491
474
380
281
371
666
736
612
567
529
527
540
513
508
483
470
462
453
464
470
457
434
460
455
437
443
420
389
378
363
366
367
386
401
422
448
471
484
492
488
492
499
494
489
489
481
474
461
457
460
474
476
460
460
461
460
462
457
443
429
421
399
407
390
411
470
484
480
507
531
503
520
529
504
461
459
429
307
284
504
751
776
637
552
516
509
508
494
505
519
513
507
491
493
469
458
453
433
416
389
364
343
334
331
318
337
352
398
430
459
476
488
505
521
516
503
476
491
498
497
519
485
462
471
480
487
467
454
452
451
458
438
419
436
438
435
460
466
480
496
483
496
459
482
485
472
456
439
337
231
336
632
723
630
527
476
464
472
466
474
472
470
467
475
493
486
482
481
478
471
447
435
420
392
400
406
397
408
438
477
493
507
505
527
534
504
529
519
510
520
509
499
498
484
507
504
472
491
465
462
491
464
450
428
404
432
453
478
487
503
512
509
524
508
498
512
490
487
414
279
312
638
839
743
601
543
514
528
535
492
457
448
446
407
435
482
353
408
471
423
413
381
392
374
375
340
355
435
461
526
547
560
581
568
575
603
596
611
611
580
554
517
430
384
468
423
432
425
399
418
403
403
432
439
403
452
495
477
494
511
536
531
528
562
567
551
562
448
304
402
664
813
701
524
436
403
432
389
393
483
457
371
378
421
460
457
411
400
382
385
395
428
408
385
411
411
391
439
486
529
573
560
482
343
342
493
551
523
464
448
467
436
430
469
496
491
458
418
408
429
471
483
478
503
497
494
499
482
508
454
292
163
380
649
619
488
429
365
405
461
446
337
352
374
472
444
408
394
398
436
460
472
486
471
363
368
389
389
413
393
384
418
406
545
567
505
437
443
478
482
431
469
510
525
508
468
432
469
495
464
472
493
508
514
518
508
487
473
436
403
432
456
432
426
438
480
536
468
444
388
322
407
327
274
334
597
701
638
517
498
523
507
508
485
503
527
488
487
427
356
321
387
348
398
388
352
232
176
241
292
287
316
352
390
394
386
444
453
456
492
513
508
519
545
539
551
548
513
453
395
407
347
303
395
475
367
439
502
409
269
346
421
467
492
448
455
435
431
483
416
310
372
620
810
719
585
491
484
422
385
381
420
514
534
446
431
392
403
414
392
379
407
348
296
295
306
317
311
344
397
444
479
522
550
587
588
539
555
556
519
508
531
525
473
418
415
448
513
455
442
408
376
391
350
417
454
492
448
365
425
487
511
560
517
494
469
333
287
545
800
760
575
528
547
508
476
481
513
486
484
501
487
495
483
406
401
380
361
311
289
287
274
294
346
301
365
417
411
448
469
467
497
501
503
479
449
445
416
440
399
416
354
372
466
390
291
283
327
417
447
450
456
436
404
409
465
455
416
445
460
439
308
160
249
609
752
655
495
437
422
427
465
395
397
387
352
349
348
357
359
361
343
363
342
341
319
269
273
278
301
309
332
375
405
458
483
430
417
392
446
472
467
458
397
414
387
400
419
401
359
396
400
392
396
419
437
419
480
560
540
502
530
504
484
513
515
405
241
296
601
723
575
591
386
424
616
451
325
308
306
400
429
423
402
433
444
408
350
310
302
260
263
280
295
336
353
385
395
399
427
458
450
488
467
433
402
419
463
465
435
398
393
391
358
335
332
372
385
382
374
401
423
391
433
481
462
443
464
462
425
417
322
191
281
638
806
620
414
409
391
421
413
387
416
405
436
450
418
433
440
441
437
439
421
381
356
291
261
287
289
329
379
434
499
475
461
496
456
482
474
465
453
426
463
440
402
460
431
432
427
446
472
423
396
431
464
477
454
424
390
428
458
476
492
493
439
353
204
289
627
775
655
519
520
490
477
434
372
389
399
392
401
443
448
430
434
424
444
431
394
355
335
313
327
326
331
373
407
444
482
500
511
525
513
495
497
504
473
445
463
424
430
436
439
433
430
412
388
425
455
450
450
489
507
490
469
465
445
448
467
474
421
272
229
442
704
778
648
529
507
489
473
466
440
435
434
409
429
441
416
404
398
419
430
416
385
343
322
326
334
325
352
385
419
424
454
484
498
504
522
542
522
490
479
464
459
449
456
458
441
450
441
379
334
368
408
416
423
484
510
504
504
505
468
441
435
427
344
227
312
609
747
638
499
454
452
461
469
466
452
434
442
453
455
434
429
409
369
353
336
300
328
322
303
342
348
354
345
388
435
440
467
487
477
509
501
486
461
436
434
437
449
446
446
450
447
436
420
410
415
425
431
445
483
470
419
420
446
435
433
455
460
461
384
285
390
636
783
689
530
465
452
461
434
440
438
399
419
428
420
423
440
424
426
402
384
371
350
335
349
353
354
379
387
406
431
429
452
502
519
523
508
495
475
490
493
481
459
444
446
464
435
418
436
419
421
439
449
457
466
486
473
483
492
504
505
500
508
501
465
309
237
462
720
735
579
461
417
421
438
442
462
478
472
467
451
450
422
397
386
376
366
354
356
345
345
322
319
344
348
384
398
409
437
438
459
476
465
468
474
479
468
473
475
474
460
462
458
433
403
392
379
412
463
482
491
492
493
496
492
499
521
535
478
470
473
470
357
229
375
706
828
671
507
471
456
456
447
433
437
445
434
442
449
432
424
419
411
393
379
365
340
331
325
321
331
352
381
407
431
456
477
490
483
467
455
444
443
423
416
423
405
410
422
433
438
438
433
452
431
412
436
440
438
436
453
452
458
466
477
482
468
480
476
469
374
216
241
547
766
705
533
458
450
431
423
433
450
461
471
470
452
443
442
408
369
357
349
325
315
320
329
327
346
366
395
432
456
461
478
484
491
508
491
473
470
463
452
430
433
453
465
449
443
435
425
403
405
392
382
401
405
409
421
443
465
470
489
491
484
486
495
473
447
325
210
335
661
808
661
504
482
456
471
435
398
402
394
389
370
388
405
398
385
374
391
366
357
374
387
345
327
321
311
358
386
403
430
443
447
437
442
435
438
453
457
443
446
460
456
448
450
436
443
439
406
398
405
384
376
400
408
387
406
429
423
422
422
439
445
449
450
442
425
383
234
194
461
742
784
612
504
469
453
428
424
428
422
426
423
412
428
419
396
382
368
340
329
347
347
295
293
336
343
394
412
435
460
463
445
442
421
415
424
416
433
435
425
415
422
416
423
434
457
455
450
426
408
405
395
376
359
304
367
403
421
434
467
454
448
436
448
439
413
403
314
200
295
593
749
649
501
450
410
418
417
423
433
448
448
437
440
440
423
408
416
391
368
383
366
324
304
334
346
353
379
408
421
438
440
435
432
446
465
472
472
470
482
445
423
422
420
417
424
405
409
413
415
417
413
392
400
421
435
428
430
441
409
401
409
371
380
428
426
415
404
291
249
367
618
729
595
470
444
422
429
449
447
430
438
423
429
444
459
451
457
460
438
429
417
392
390
427
414
411
431
440
483
546
539
529
526
563
547
528
520
424
352
437
422
426
442
466
455
437
425
434
411
385
389
392
391
382
405
405
414
440
466
470
462
486
482
500
539
490
259
248
484
614
563
399
365
376
327
387
445
411
379
333
348
334
343
361
349
327
306
300
293
288
289
291
283
286
290
320
348
367
390
407
407
384
400
411
393
400
372
384
357
326
319
323
313
284
345
347
337
335
320
324
313
343
361
359
383
383
388
403
425
377
352
360
351
330
207
163
378
565
572
455
373
383
378
370
374
363
375
362
347
385
377
350
328
317
339
333
339
305
263
257
267
267
299
316
349
368
392
423
427
443
445
454
479
462
445
462
446
430
420
449
455
450
441
433
407
419
417
405
407
408
437
475
449
413
430
424
434
438
420
451
381
257
334
625
767
656
508
455
439
440
449
456
456
444
438
436
453
460
469
467
442
446
458
427
411
398
386
372
330
317
378
412
465
526
535
528
491
469
465
480
501
488
462
466
451
431
423
431
437
426
425
458
458
460
494
491
480
503
500
488
509
506
487
465
440
443
361
211
329
620
756
658
537
477
480
481
484
477
483
481
459
463
463
428
430
455
431
408
413
405
390
376
368
395
385
398
464
448
426
451
460
482
474
467
480
496
477
488
472
469
447
422
432
432
415
398
404
405
409
434
436
443
446
453
456
477
493
491
486
498
496
409
311
394
664
770
676
571
529
519
505
495
485
472
501
522
504
484
473
464
469
459
450
428
407
398
390
397
400
396
419
443
467
485
511
522
520
528
533
520
522
525
517
508
500
489
487
486
468
435
454
477
470
464
473
473
447
465
497
515
526
523
504
479
467
417
280
247
468
732
749
590
535
512
477
464
461
463
458
452
448
443
439
441
427
425
409
380
356
334
331
327
323
322
343
380
418
457
458
457
452
458
450
446
441
441
442
441
437
434
428
414
409
417
402
398
402
410
419
418
430
436
443
455
463
451
456
450
437
435
396
242
173
433
730
732
575
500
463
456
446
430
443
456
460
411
472
460
430
423
422
414
397
355
328
318
327
341
337
353
371
393
428
452
470
481
495
487
483
477
467
459
453
440
432
425
404
398
400
391
373
374
392
387
394
416
423
426
425
427
428
424
425
427
424
410
355
212
202
471
735
715
526
436
415
389
391
380
369
368
369
378
385
372
376
377
350
336
326
306
281
273
284
274
284
310
323
368
393
384
399
425
432
447
448
433
425
439
440
420
425
435
424
422
448
426
420
438
409
380
401
408
436
462
468
447
466
456
420
425
408
418
443
421
380
241
181
430
707
736
577
474
446
413
423
439
432
425
439
450
468
454
428
434
382
354
339
289
267
276
272
271
270
279
288
317
344
365
408
425
448
452
447
450
440
452
461
442
442
443
443
434
448
446
438
460
445
412
436
441
418
484
513
480
508
526
465
384
418
399
355
350
323
247
207
366
610
681
572
496
469
449
449
413
388
412
408
421
451
430
412
374
346
273
259
311
319
340
372
327
314
318
275
305
359
390
419
436
462
434
457
470
446
430
425
450
479
482
474
432
423
406
409
433
433
412
388
357
387
430
401
408
453
529
529
470
460
403
338
301
390
367
213
262
545
683
604
493
452
453
478
523
483
470
459
380
415
412
384
394
384
374
358
388
361
326
341
340
312
282
318
307
291
341
366
419
434
446
467
463
450
450
445
469
486
442
371
379
374
406
428
424
375
366
384
382
345
311
373
431
414
371
397
389
423
435
414
411
374
232
186
437
631
628
524
436
424
434
454
447
461
467
463
496
515
449
418
386
382
412
380
317
323
309
314
315
311
331
374
387
387
397
408
415
421
408
422
451
448
430
427
427
415
424
483
455
416
408
388
344
359
351
393
412
428
430
441
425
422
456
460
445
417
369
332
363
189
169
530
692
618
511
422
382
396
390
371
385
391
382
387
382
372
365
381
389
366
334
313
307
302
324
361
312
337
368
388
409
416
404
435
449
470
464
451
470
469
428
410
405
373
371
394
387
380
356
370
396
383
389
419
420
425
420
427
424
422
416
401
409
398
313
197
248
562
729
620
486
440
424
423
404
399
389
375
378
377
373
391
385
378
362
329
304
300
305
311
294
275
283
294
319
333
355
419
422
421
429
416
407
407
388
403
407
407
408
384
345
356
374
349
352
372
371
383
393
384
392
402
401
403
411
423
409
410
405
379
238
123
290
622
702
573
460
413
408
389
355
357
353
376
396
385
369
371
382
356
343
344
336
312
326
319
281
300
335
371
387
429
438
463
483
506
503
491
492
510
504
502
504
492
493
496
464
445
421
402
417
431
430
435
458
472
487
493
466
454
467
483
464
455
461
379
227
259
568
799
725
539
498
469
458
464
455
444
444
424
419
423
403
403
397
387
341
318
311
306
327
361
370
348
370
401
432
455
454
457
476
494
486
494
485
487
489
470
474
470
456
441
449
455
453
428
423
436
437
445
456
467
467
474
459
450
461
458
467
485
468
423
292
231
454
777
811
601
500
469
445
432
424
419
437
437
433
432
438
451
419
398
406
380
351
342
330
325
334
331
357
399
437
464
467
482
495
481
494
483
471
461
464
463
453
466
467
467
487
492
472
470
457
445
454
465
481
481
486
487
477
486
469
465
455
459
480
471
431
301
199
383
696
745
608
509
457
437
440
448
440
451
448
459
456
458
431
419
407
387
383
367
357
356
365
361
381
396
423
461
500
522
503
499
508
473
457
427
403
436
410
397
430
432
442
422
429
414
398
378
391
405
408
434
440
430
421
429
434
437
426
425
426
424
404
312
248
405
669
707
573
474
405
383
407
403
396
405
396
399
403
378
349
332
354
357
354
332
311
311
350
325
303
340
356
393
425
445
464
466
497
497
468
479
477
462
479
483
470
471
465
467
508
496
415
398
383
408
447
434
433
418
437
461
460
450
461
461
461
454
376
261
302
611
825
685
513
493
471
418
414
431
426
413
430
419
401
397
367
369
394
383
363
369
348
335
333
320
316
362
395
416
440
450
453
465
463
456
449
430
432
442
448
452
449
434
431
423
414
411
419
412
412
430
446
448
436
451
450
449
451
460
460
447
429
357
255
335
595
693
620
516
466
448
439
439
441
435
413
420
426
419
414
408
410
395
375
349
331
326
319
303
322
339
374
407
443
448
439
458
457
452
449
455
453
442
446
431
414
422
403
400
399
360
375
380
379
384
422
440
424
436
449
444
450
447
438
434
417
339
231
269
538
744
683
529
440
406
394
385
388
392
381
364
369
365
365
373
367
356
345
333
307
294
273
273
281
296
333
366
398
421
436
447
465
472
463
461
450
461
458
443
449
440
440
428
419
402
416
434
423
431
442
455
463
465
478
462
458
468
479
478
472
401
258
269
542
759
723
550
471
457
452
437
430
423
418
418
411
396
390
388
376
376
353
337
321
309
303
317
317
321
353
387
412
459
464
464
478
477
479
497
482
460
455
444
443
432
440
434
427
412
398
412
406
410
431
448
459
458
456
462
464
451
443
446
433
397
251
216
455
744
759
574
472
448
448
429
425
436
449
445
447
435
448
434
428
412
383
374
352
303
281
291
302
342
384
417
441
469
491
501
511
504
500
515
501
487
497
488
471
506
491
477
485
476
444
450
456
463
474
478
501
505
492
510
505
493
479
479
511
482
463
332
233
401
736
862
676
516
487
485
463
468
482
450
430
418
419
419
418
409
404
386
351
337
338
300
313
286
299
324
390
411
424
467
436
421
411
392
416
433
442
460
439
410
454
519
528
513
499
471
427
408
379
375
375
411
426
479
532
534
506
516
529
505
481
475
483
484
374
250
351
656
786
653
505
457
437
425
420
415
400
394
396
397
394
394
374
348
342
328
308
292
282
292
263
259
302
339
364
390
396
463
459
464
452
448
435
448
436
434
435
439
444
449
442
447
441
440
445
430
421
438
438
450
456
467
480
494
483
480
487
486
474
471
452
428
304
232
427
732
783
609
503
478
467
461
477
481
470
477
464
458
456
444
421
419
394
344
300
278
277
276
286
316
348
365
387
453
488
510
499
488
492
480
467
445
446
434
430
447
455
454
461
446
426
436
403
373
388
401
398
391
409
431
433
457
483
467
465
482
453
432
417
382
246
182
363
658
684
499
381
373
422
400
407
421
384
374
376
364
355
348
336
326
307
309
302
273
258
252
259
270
299
335
330
346
362
379
408
400
456
462
397
336
355
333
357
375
368
408
422
414
423
411
408
385
410
409
410
419
418
416
406
426
399
403
392
242
195
413
630
643
506
439
447
422
403
376
348
352
364
375
418
411
339
336
338
299
258
275
267
254
250
284
353
364
386
376
423
541
512
499
502
494
472
455
413
364
364
383
382
404
427
410
435
536
576
498
458
418
383
371
392
387
376
402
399
406
410
429
436
444
448
469
476
459
466
440
401
377
243
212
386
602
688
540
455
482
505
502
465
441
415
409
406
401
395
399
412
416
403
374
350
335
320
336
345
346
357
386
432
464
455
463
465
462
436
432
440
429
435
431
409
449
440
447
450
428
423
425
414
385
407
420
425
434
436
449
456
448
450
456
465
491
485
480
456
366
228
284
568
718
635
507
453
445
446
435
438
466
466
444
431
417
408
399
401
399
372
366
356
343
318
318
338
361
374
420
454
467
485
511
535
536
523
476
452
457
468
487
459
452
483
453
448
452
436
436
416
432
446
440
442
475
466
473
501
444
460
461
461
442
438
412
295
176
272
592
761
670
525
487
476
457
446
436
418
414
429
456
459
453
429
406
402
388
366
339
319
305
310
318
329
362
403
450
461
477
480
479
484
484
489
494
474
468
484
474
459
468
474
478
515
485
468
450
432
435
397
406
426
434
458
458
451
456
444
445
449
455
448
425
291
185
306
600
714
620
477
437
422
435
418
413
420
434
425
409
407
387
379
376
386
374
325
280
292
312
327
347
354
390
418
422
427
436
447
453
463
463
453
464
445
439
442
448
422
453
463
456
448
449
442
422
450
451
452
480
486
450
461
484
500
494
485
482
468
468
461
372
254
377
666
782
702
575
501
476
414
358
343
338
359
379
391
372
403
407
384
391
352
356
320
298
311
303
324
360
390
450
442
451
454
477
500
518
517
431
414
399
389
383
378
408
402
410
414
408
400
384
412
415
404
420
429
415
419
424
411
416
440
458
473
476
471
419
291
280
514
650
601
487
441
388
361
394
398
421
400
398
417
381
342
336
321
309
330
351
354
305
283
257
242
247
272
327
361
385
382
412
422
429
421
398
380
385
362
361
359
372
364
373
345
305
275
254
258
284
293
340
377
359
353
331
339
340
340
362
373
384
354
248
181
319
521
554
501
409
390
410
420
424
440
444
431
429
449
435
455
431
385
337
339
358
340
321
304
298
298
306
327
391
412
439
477
477
462
444
449
446
432
419
415
401
395
390
382
380
391
370
388
386
399
400
422
404
403
432
438
422
431
431
438
431
416
343
230
305
624
772
632
474
436
407
407
406
416
423
411
408
402
400
372
373
353
336
336
328
286
291
300
308
310
323
357
392
409
439
450
454
469
455
435
426
402
396
385
376
381
405
408
386
390
375
376
390
392
384
389
412
400
405
409
407
399
396
404
407
403
365
227
176
416
708
699
525
437
413
411
408
397
396
395
380
376
364
373
369
357
352
343
323
281
252
244
225
235
286
331
355
381
415
430
420
400
435
448
433
432
439
443
431
434
420
417
423
413
409
397
412
418
416
410
390
374
406
437
464
489
487
485
463
444
435
344
264
382
637
764
639
498
466
445
447
431
421
421
418
420
418
416
402
400
396
380
352
329
312
299
307
311
309
320
368
423
447
478
497
498
498
477
470
461
463
460
444
437
439
444
449
450
444
434
424
428
433
435
450
472
468
475
474
478
480
470
472
466
462
442
315
271
476
744
786
611
503
479
462
457
452
442
442
434
401
369
379
392
404
403
383
361
345
328
303
300
316
338
365
404
446
473
475
469
473
471
471
471
463
457
454
448
440
438
438
431
429
430
424
405
405
417
412
416
440
455
457
442
460
463
477
482
464
455
446
355
245
315
621
808
734
564
497
480
464
447
431
436
429
419
401
406
417
420
409
398
370
344
335
328
316
320
332
359
405
443
464
485
498
513
512
515
508
495
496
495
483
467
463
443
443
446
432
412
417
414
442
455
452
455
457
473
472
492
499
473
474
467
458
466
450
354
249
367
679
824
671
504
466
455
452
432
426
423
421
418
414
407
407
400
388
374
355
322
293
290
283
282
299
332
373
421
452
469
472
464
463
478
495
490
485
480
470
464
455
458
458
446
449
426
432
422
416
419
419
421
442
449
465
460
465
478
473
476
481
479
466
367
250
340
645
809
689
516
464
441
435
430
419
420
425
408
408
409
388
381
377
361
336
292
271
256
267
271
291
335
378
400
436
460
485
466
466
469
458
447
443
441
439
443
448
446
433
428
424
420
412
416
403
381
388
404
403
413
438
444
448
451
446
460
460
456
457
458
442
348
246
359
669
794
665
510
463
440
435
419
439
435
416
418
428
427
433
423
409
399
376
353
331
326
310
308
317
334
351
390
434
449
478
492
498
496
486
478
482
492
494
487
481
480
474
475
467
461
454
450
443
412
399
415
414
422
444
484
489
502
507
499
488
497
492
500
489
403
264
320
632
845
755
568
517
480
474
477
472
461
447
446
440
435
437
423
413
406
368
347
329
309
306
302
317
344
380
428
471
480
493
502
503
502
493
490
489
469
459
449
431
424
436
452
465
457
439
409
404
396
420
437
440
438
463
466
452
441
444
450
459
463
459
450
430
318
221
342
659
803
652
491
443
430
417
418
407
400
387
386
385
378
372
359
345
323
313
305
290
281
291
305
304
321
357
388
417
428
424
439
455
463
468
473
478
472
460
456
446
450
441
439
451
456
460
461
453
447
448
422
428
428
426
436
454
456
462
472
469
472
480
473
460
439
415
306
248
466
769
814
631
513
476
456
454
450
464
465
465
449
439
438
424
411
403
377
356
340
320
308
304
309
321
346
398
431
459
480
504
506
513
509
503
494
499
501
488
481
486
489
479
483
485
476
470
474
463
452
443
463
459
450
469
495
503
496
500
508
508
504
499
497
487
454
304
249
510
801
819
624
506
495
481
463
456
453
454
442
442
438
432
428
428
390
366
360
328
306
307
304
298
323
350
396
427
458
484
501
505
502
493
504
497
484
478
460
453
453
458
447
448
449
451
453
438
425
423
415
403
412
402
405
416
440
439
450
462
453
467
457
447
444
448
423
285
196
370
714
809
622
467
437
413
417
401
415
404
378
391
392
379
391
366
360
345
323
320
280
290
269
284
295
319
360
413
452
437
466
508
473
472
492
472
468
460
451
456
454
454
454
438
443
455
444
449
445
443
441
435
424
410
423
424
427
441
448
458
466
466
470
473
478
467
463
459
392
251
241
549
803
774
567
482
467
448
443
437
441
425
426
427
425
420
405
399
392
368
346
336
306
305
315
313
340
381
414
451
473
496
504
502
506
505
499
494
484
483
476
462
460
468
467
465
468
476
468
478
471
465
455
461
439
429
456
453
452
464
481
483
488
496
499
500
491
492
488
486
411
257
277
609
847
766
571
504
477
461
458
457
448
440
440
437
425
419
418
405
392
371
346
323
308
303
299
309
325
362
402
437
463
483
487
487
494
492
475
479
466
457
454
448
448
445
444
445
441
445
443
442
440
430
423
422
415
397
409
408
412
417
433
439
439
446
448
438
447
449
442
439
417
325
228
339
664
806
660
484
446
424
421
416
409
416
404
404
404
397
390
388
376
364
342
323
307
294
295
297
302
327
363
398
424
446
464
475
463
472
471
467
465
462
455
456
445
444
449
452
447
451
458
458
466
460
455
465
462
458
451
449
447
440
426
435
440
444
462
471
473
481
478
484
484
492
495
492
469
387
275
339
663
850
749
565
502
482
479
468
460
458
452
452
457
450
433
429
420
404
384
366
343
337
326
328
329
348
388
428
460
490
503
509
511
508
512
510
496
491
485
479
477
472
472
478
478
479
480
489
482
486
483
486
481
479
481
478
466
449
448
455
448
454
473
489
483
484
481
486
486
485
480
476
466
424
285
259
532
802
788
585
484
462
442
440
432
427
422
416
409
406
396
395
382
367
353
336
316
299
288
291
295
301
332
365
400
430
447
465
461
464
470
466
456
448
442
436
427
431
427
439
442
443
443
434
436
444
442
445
445
447
442
439
431
431
423
425
409
400
405
403
413
431
443
443
435
451
460
459
455
456
449
447
382
263
297
579
785
728
542
467
448
436
429
433
428
425
422
420
421
415
409
402
390
380
357
333
317
318
327
327
333
365
401
430
453
478
485
491
494
494
483
484
477
481
470
465
469
464
464
472
476
475
477
476
477
480
476
485
480
483
476
466
470
475
442
452
456
465
464
476
505
510
506
506
512
516
512
513
506
502
444
311
327
627
859
787
584
518
505
485
478
482
474
465
448
444
444
449
441
429
404
380
367
337
324
319
309
321
341
383
426
448
467
486
503
501
490
492
487
471
465
468
461
459
446
446
449
451
452
457
444
454
452
435
427
432
440
418
397
423
416
410
430
453
452
444
447
452
455
452
457
458
438
427
336
257
398
695
788
625
481
449
426
428
416
412
418
410
402
402
397
396
380
372
360
347
324
310
304
302
312
322
341
385
414
436
466
471
479
485
474
475
467
462
465
456
451
455
460
459
463
461
466
473
470
470
474
474
473
472
472
467
459
455
449
448
453
459
461
482
492
498
498
514
506
509
509
510
504
499
446
323
331
618
862
795
604
523
501
487
488
481
475
468
455
457
451
446
440
437
414
402
384
361
341
336
338
343
356
396
437
466
494
516
513
520
519
518
518
499
496
491
481
480
471
479
480
487
486
492
477
468
469
452
449
451
422
430
437
442
440
467
467
475
479
478
470
466
466
466
468
463
407
296
258
492
742
760
561
453
423
401
398
403
401
393
389
393
384
385
384
383
367
352
340
321
311
311
305
306
319
354
392
431
444
465
470
480
483
481
470
467
464
463
463
460
461
450
451
471
471
455
415
416
415
450
483
481
477
452
458
477
476
489
497
511
516
516
512
514
510
509
500
509
497
468
335
297
562
824
812
617
513
496
486
483
470
464
461
464
448
436
388
347
351
386
386
367
359
344
326
325
327
312
270
316
375
386
402
413
478
502
490
491
484
483
476
470
476
467
467
477
477
480
479
470
460
465
464
459
451
442
453
459
450
463
487
490
489
496
490
499
502
503
493
493
488
425
288
300
591
833
765
561
494
470
464
457
462
454
428
427
425
416
407
393
377
354
350
327
297
286
283
289
293
315
335
389
425
453
468
465
468
459
455
452
455
480
479
458
453
455
458
458
452
446
443
443
449
453
435
428
415
414
395
403
413
416
424
439
443
439
430
443
449
454
456
451
450
447
408
295
258
475
743
766
592
473
440
426
419
421
422
420
417
402
399
392
390
374
323
289
280
255
233
247
241
233
252
303
348
391
434
467
477
487
451
412
415
423
438
445
448
457
448
432
433
435
437
443
449
455
456
448
455
482
475
450
452
442
428
441
450
476
504
509
498
482
509
514
486
458
454
455
352
288
509
787
855
667
544
516
483
483
472
460
470
475
465
453
453
439
425
426
419
389
368
357
336
327
341
363
383
440
468
471
497
504
511
525
514
501
487
470
444
438
437
433
435
433
440
443
449
453
442
452
442
408
416
421
428
442
468
482
482
484
472
489
485
473
485
476
478
441
337
242
369
677
786
640
481
435
416
387
390
372
413
417
417
416
394
393
374
355
338
314
295
260
250
258
259
291
307
335
390
406
430
454
469
473
483
500
498
475
471
473
478
465
454
460
449
447
427
424
425
429
419
429
448
451
441
455
467
459
471
480
465
468
475
482
473
472
469
401
271
310
590
791
735
565
491
484
471
466
461
448
424
415
439
446
451
429
411
392
372
335
321
315
279
269
292
326
368
417
479
516
540
544
541
536
537
529
509
508
495
489
482
476
480
479
472
458
444
451
440
401
416
444
435
428
444
444
434
430
449
474
478
478
479
469
466
454
342
241
411
731
863
672
519
494
462
449
453
421
402
390
409
427
402
395
373
363
355
325
306
280
261
268
281
304
356
399
438
466
477
483
493
501
492
492
482
473
459
458
455
476
430
409
421
390
384
390
374
387
403
402
407
419
430
432
434
443
448
439
451
455
452
460
460
391
246
266
598
808
718
555
500
460
444
424
380
368
358
364
404
385
357
334
362
339
297
300
281
263
283
281
282
335
393
439
469
471
490
491
482
479
487
484
473
468
473
453
441
452
446
425
421
418
402
393
410
410
417
429
453
458
457
463
464
464
471
469
483
476
482
434
291
220
462
771
801
619
518
501
475
449
448
412
418
434
459
476
466
435
412
384
354
320
308
304
300
316
328
352
392
430
471
490
512
516
515
513
508
502
503
504
476
468
472
448
448
460
430
424
418
400
415
418
406
415
432
443
450
446
444
437
447
444
437
435
441
426
300
182
344
672
791
648
492
444
424
413
402
384
392
386
387
389
381
376
367
363
346
326
305
296
289
281
282
301
338
377
400
420
446
452
450
453
451
449
441
437
426
417
418
415
421
423
424
421
421
416
411
399
398
411
409
414
433
452
448
455
458
465
482
492
482
464
462
449
394
256
254
556
771
717
535
446
437
434
449
453
443
432
437
431
430
414
410
400
388
374
359
336
322
328
317
322
349
386
432
463
470
494
493
491
495
493
483
471
467
453
454
460
456
466
476
461
442
430
437
442
422
423
431
434
438
456
472
476
480
475
488
497
474
470
473
466
452
363
226
269
589
826
731
511
440
405
400
399
404
376
366
388
387
380
391
367
361
351
337
316
299
298
294
289
292
322
376
406
437
453
448
464
466
471
457
440
448
433
427
423
416
425
419
425
420
424
428
419
414
408
400
382
399
408
409
416
433
441
436
448
459
461
461
471
471
469
465
439
301
237
480
762
771
600
490
464
427
410
397
411
429
430
421
410
399
407
391
371
364
347
325
300
297
312
318
332
375
413
456
483
490
498
500
514
500
485
491
478
467
463
461
457
453
447
448
455
462
455
455
459
444
422
439
439
441
451
478
480
478
479
480
484
482
475
476
481
476
450
329
242
440
759
819
634
495
459
448
440
420
417
415
393
368
355
361
363
358
355
314
259
256
274
258
257
294
305
311
355
397
427
456
474
480
475
467
459
457
444
432
435
441
433
424
424
420
419
412
413
414
405
387
397
387
367
381
386
394
408
429
435
439
438
435
440
447
448
446
448
438
401
279
283
561
798
762
583
484
467
459
448
441
412
414
418
402
407
410
425
403
381
371
337
311
301
293
290
302
334
371
405
440
465
475
484
498
493
494
479
480
476
463
459
457
463
464
454
464
464
469
461
457
444
447
430
427
451
453
442
459
459
468
477
480
471
467
476
479
475
480
479
403
285
335
626
820
724
545
483
461
448
446
443
437
428
421
419
417
401
390
377
363
343
307
299
285
284
288
300
331
369
405
432
464
459
458
476
480
493
484
460
460
455
451
443
440
440
442
441
437
434
436
431
426
423
404
419
416
416
428
451
456
456
461
461
451
446
458
460
447
444
422
298
217
418
717
775
595
474
452
427
412
410
408
397
386
378
378
373
360
352
336
314
305
291
283
275
290
296
307
344
381
408
432
437
449
446
450
457
457
447
457
448
444
450
446
440
446
447
447
444
451
437
440
435
435
419
429
439
443
442
461
475
483
483
491
493
487
493
490
493
497
483
377
263
395
715
845
696
551
498
484
483
471
463
456
462
451
447
452
434
416
413
394
360
332
324
311
310
319
339
381
410
455
492
508
513
515
510
511
499
488
483
479
467
458
463
461
461
463
465
463
464
455
444
447
440
423
426
434
437
440
459
470
470
480
479
483
474
477
478
470
468
447
317
234
435
746
815
635
496
463
434
424
421
411
405
399
394
396
379
358
349
334
317
298
291
272
270
264
272
291
328
380
416
447
464
465
471
469
471
462
472
467
461
456
464
456
441
444
443
444
449
441
443
449
440
440
434
411
427
433
427
433
457
449
456
458
449
448
444
435
435
441
432
384
257
243
493
750
747
543
450
425
400
403
400
390
387
380
380
373
363
359
342
326
309
282
267
262
265
270
275
301
335
370
403
428
446
460
461
454
447
448
440
435
431
428
429
427
432
426
423
425
429
436
432
427
425
414
415
414
403
392
405
413
414
429
443
444
454
463
465
456
459
462
451
455
454
397
273
273
537
791
785
588
491
474
461
446
444
435
437
435
431
426
421
411
402
387
370
339
317
319
304
308
322
339
381
420
457
478
489
506
504
501
496
497
493
480
478
469
464
462
463
463
475
469
463
468
468
462
451
455
452
430
417
435
428
422
440
453
457
470
475
463
462
466
455
457
456
443
387
244
253
556
787
740
545
459
439
415
406
404
402
391
389
383
374
371
370
342
319
309
285
267
263
259
266
271
288
335
373
406
422
440
446
449
451
448
437
433
432
431
417
416
415
414
415
420
425
423
425
430
432
430
418
415
412
403
384
386
402
399
416
434
446
456
452
471
471
458
453
459
474
463
433
326
242
383
721
844
693
553
504
470
494
459
448
446
429
427
422
421
412
404
401
377
343
332
316
296
291
294
307
339
386
417
444
464
471
474
465
467
466
458
449
439
436
432
431
432
427
430
432
428
424
429
430
431
425
416
416
409
402
386
400
400
395
406
433
443
440
440
447
449
448
451
451
435
431
395
260
223
446
731
759
564
467
437
418
422
416
408
398
396
394
390
380
369
362
346
328
309
283
274
279
272
276
298
332
379
403
427
441
452
458
456
456
446
446
440
433
432
431
437
424
418
427
428
430
429
429
431
431
431
432
430
411
414
411
401
384
396
399
406
410
425
436
434
435
441
448
433
446
443
431
424
376
271
279
544
774
711
523
444
414
412
407
404
405
406
396
387
385
375
366
364
346
326
311
292
282
271
274
286
311
347
381
406
433
443
447
456
455
457
455
445
445
445
443
434
438
436
429
434
444
441
443
444
446
448
448
447
450
446
445
441
437
442
435
418
436
442
437
455
476
477
481
493
499
492
495
498
496
492
480
420
336
380
642
816
746
562
502
489
476
466
464
464
455
448
448
447
435
424
419
401
381
361
343
333
329
332
337
359
403
440
469
490
501
506
510
514
510
495
491
490
486
480
482
479
478
483
484
480
486
493
480
485
484
488
490
480
479
475
464
465
459
445
444
455
466
446
461
476
473
488
486
489
487
474
482
495
476
453
352
275
407
700
794
620
472
447
435
426
413
402
404
409
408
370
327
332
327
315
294
277
256
235
236
239
245
271
321
385
415
445
466
468
467
476
474
463
462
459
456
446
431
442
441
436
437
444
451
449
451
446
453
450
448
447
435
434
432
421
408
412
418
421
428
453
446
449
457
457
455
455
450
448
449
444
399
279
280
516
757
753
564
456
436
430
415
407
403
400
400
392
381
379
371
360
346
323
311
287
271
268
272
278
299
338
373
407
431
451
455
454
461
462
451
446
447
445
438
437
436
438
435
432
434
436
436
440
435
439
438
437
436
435
429
427
420
407
393
401
409
413
432
441
444
453
459
451
456
459
461
462
457
448
387
285
316
590
782
728
541
457
443
434
425
426
412
408
413
405
400
394
399
386
364
344
327
305
287
291
291
301
327
376
418
443
455
479
487
485
491
490
484
469
469
471
465
460
459
457
456
464
465
463
465
462
469
465
464
466
465
467
470
461
451
451
444
436
431
433
438
441
453
475
477
482
483
490
478
476
480
479
476
463
356
270
419
717
827
674
511
475
455
446
448
438
431
420
416
411
404
404
391
372
358
328
309
289
278
282
281
305
334
383
425
445
471
482
490
489
494
485
491
487
468
463
459
451
439
436
438
450
477
517
561
562
492
446
354
338
354
332
307
271
312
332
323
286
319
382
417
420
412
463
420
312
330
376
359
348
350
300
209
316
587
703
588
455
420
405
430
425
379
380
390
373
372
377
355
346
343
331
311
288
265
285
281
281
283
294
358
392
418
435
441
438
436
445
430
443
437
440
423
417
418
405
417
428
395
408
428
453
410
390
426
414
397
408
403
398
377
372
397
410
406
422
418
418
424
431
428
436
434
436
449
440
413
318
271
435
700
746
569
415
376
363
365
371
360
363
372
372
348
367
348
341
344
311
297
282
265
252
243
270
309
309
361
408
412
427
434
449
451
447
446
462
470
478
454
461
469
481
458
443
457
438
439
440
432
423
419
427
406
392
417
424
413
420
435
428
440
444
439
448
443
445
450
417
398
336
310
345
571
788
646
484
478
457
434
443
437
426
416
405
400
399
395
386
374
360
340
324
296
282
297
291
310
346
374
418
447
464
479
483
490
485
480
474
477
465
461
464
460
456
456
459
458
458
457
453
456
448
446
428
427
443
446
450
474
481
476
474
490
496
492
487
491
486
483
454
345
295
486
775
815
623
507
474
463
456
446
445
438
435
423
419
422
411
396
386
369
343
335
316
305
317
329
355
382
433
471
483
503
528
548
538
541
538
538
534
533
537
498
498
501
500
504
505
506
498
483
468
464
454
423
432
436
441
451
467
471
467
468
463
471
465
468
472
468
462
419
320
329
583
776
708
539
490
460
447
448
440
431
436
436
426
411
408
400
377
367
349
327
314
302
297
306
313
332
376
408
441
458
461
473
481
474
470
463
456
458
451
452
447
449
451
446
458
466
455
443
446
455
436
411
431
439
438
444
472
470
468
475
474
477
478
470
476
474
465
446
350
279
428
721
780
611
503
470
450
446
447
441
435
442
431
423
409
401
392
391
362
336
327
318
303
313
310
333
368
404
435
455
469
476
476
479
480
477
475
469
467
463
456
454
447
439
435
452
446
446
451
443
444
439
439
429
419
421
428
432
441
452
453
469
474
475
461
473
474
471
476
468
390
348
492
735
774
651
531
500
487
479
476
473
461
479
472
449
445
443
423
411
387
360
347
323
308
309
310
330
371
410
440
466
478
483
492
489
478
470
483
468
452
451
441
449
458
454
445
441
447
457
464
451
445
439
433
413
422
423
438
441
453
460
462
464
466
462
461
466
471
471
455
428
317
285
499
735
737
550
463
439
434
429
422
420
420
418
398
392
391
381
375
353
329
319
298
302
291
276
293
319
343
386
419
438
447
453
445
451
451
444
437
446
444
432
434
434
432
439
443
432
434
434
438
429
425
427
403
394
400
404
402
421
439
446
448
459
461
455
451
455
448
456
446
390
307
377
601
725
668
514
448
435
435
437
425
435
427
416
413
396
380
382
367
352
345
332
315
313
307
310
321
344
384
430
450
458
475
480
484
484
469
459
460
454
446
441
451
455
450
453
442
426
424
423
436
434
437
442
458
442
435
438
421
411
429
439
437
449
450
458
467
469
464
471
471
468
419
327
374
655
818
729
560
481
451
454
453
440
434
420
403
394
373
370
371
377
365
357
330
291
262
256
240
269
320
358
410
442
464
471
476
474
468
456
449
435
441
438
434
456
452
446
447
440
435
422
412
419
420
391
355
378
399
418
420
419
412
448
457
456
460
468
466
471
460
464
450
341
264
416
670
756
631
503
465
441
445
454
447
455
439
427
427
415
400
359
340
326
310
294
303
281
260
269
276
296
366
412
431
456
470
485
485
480
469
465
455
449
450
454
465
466
470
454
452
446
444
423
414
413
413
413
431
446
421
408
410
429
457
473
473
456
460
453
440
429
311
236
419
697
779
613
464
433
429
428
421
417
420
415
404
397
378
366
361
343
312
289
257
254
249
211
236
305
349
374
431
457
461
459
442
443
443
456
467
464
470
450
449
448
448
448
448
442
428
426
429
427
415
427
440
434
441
464
479
474
469
471
452
430
436
440
451
471
438
319
248
379
685
813
642
490
446
431
429
430
416
409
403
388
393
383
373
376
347
321
301
268
266
258
252
263
297
336
384
422
433
450
466
476
476
485
481
467
456
454
443
434
439
434
444
443
433
429
430
426
420
411
423
428
430
441
454
461
460
471
467
474
485
477
488
471
473
452
342
205
309
613
763
686
541
473
465
448
444
438
439
431
419
418
417
400
380
365
343
308
289
280
264
274
295
320
362
409
447
484
489
496
496
500
502
487
484
473
455
453
459
465
470
474
452
423
415
402
395
403
387
397
407
412
429
447
452
451
457
464
453
459
462
462
464
461
427
302
228
465
747
772
618
504
459
440
433
421
424
432
419
416
412
407
389
378
365
336
323
309
286
292
290
295
336
374
411
438
459
485
491
493
498
494
482
489
481
485
485
479
473
463
476
463
460
452
438
415
373
376
397
399
423
455
450
452
445
451
462
459
442
452
472
457
440
390
268
268
529
740
719
555
459
447
427
410
417
413
417
422
417
399
389
390
358
349
325
287
279
269
280
273
295
340
375
407
427
453
456
434
422
430
447
462
474
495
479
462
447
440
449
443
439
431
435
446
445
432
435
436
419
423
434
434
421
448
465
474
486
484
482
488
484
472
470
464
440
320
225
384
662
787
659
501
465
450
441
441
439
424
422
424
401
415
405
370
371
353
329
291
254
250
248
283
280
316
374
404
426
442
461
485
497
509
477
473
478
472
457
438
428
444
442
455
451
430
462
434
429
398
351
368
391
404
417
444
462
463
467
469
463
469
461
462
465
462
450
367
255
302
605
770
662
518
464
433
431
417
382
380
376
381
384
394
398
390
368
356
321
291
263
248
248
254
281
318
372
409
422
452
458
462
470
476
463
452
454
446
452
440
435
448
435
435
432
435
435
439
435
430
433
407
389
412
417
422
426
454
464
469
467
484
482
482
470
467
467
461
440
306
223
409
680
735
568
463
460
465
468
467
441
441
422
404
407
397
384
384
376
368
327
299
276
273
281
294
304
350
384
421
445
467
485
496
510
509
498
502
481
481
481
473
467
474
471
478
485
463
459
455
452
448
438
420
403
408
369
374
411
443
467
473
464
475
475
452
452
454
438
417
379
272
226
454
715
748
589
472
445
424
420
431
416
411
402
391
392
397
380
372
340
323
314
284
276
265
258
269
295
347
385
431
464
485
487
467
466
469
457
448
443
457
442
437
443
429
452
457
429
438
437
431
420
420
426
424
414
414
438
436
434
439
467
468
474
478
486
485
489
481
464
458
447
400
283
281
552
786
770
577
464
471
454
440
445
424
418
415
412
413
404
390
377
366
341
312
299
296
292
304
314
356
406
453
486
495
505
522
511
522
531
508
491
498
497
478
453
436
424
438
441
426
445
453
428
433
428
403
395
410
412
420
430
448
435
438
475
479
488
486
467
470
467
456
419
287
246
496
750
748
576
458
413
416
411
418
407
395
388
383
385
371
371
362
344
307
290
266
233
245
234
256
300
339
389
425
440
478
482
466
483
484
473
479
487
462
453
441
451
457
431
426
424
442
433
453
440
427
420
379
390
433
423
431
452
452
462
480
477
468
476
481
484
488
482
471
372
246
333
633
810
704
542
476
447
420
418
435
423
410
418
410
408
392
367
367
357
338
302
279
260
257
265
301
346
375
409
435
463
472
476
501
484
486
503
480
457
450
441
427
432
425
426
431
425
427
413
387
383
373
372
387
396
397
424
443
450
460
448
448
448
451
453
453
457
446
384
228
247
551
760
715
553
458
435
412
384
364
375
378
384
381
380
380
372
355
311
289
277
267
236
245
260
272
304
347
383
414
441
442
449
461
464
463
460
462
450
448
454
450
434
441
439
440
433
445
415
412
421
432
407
413
407
409
407
421
447
449
456
463
470
475
486
472
476
467
444
350
242
352
655
819
707
540
502
485
475
465
472
461
461
461
460
445
425
410
392
376
363
358
323
286
268
282
293
345
407
445
468
485
494
507
503
503
492
488
488
484
484
476
473
486
469
464
466
466
455
441
440
428
423
445
432
430
422
407
408
435
477
474
479
491
456
447
454
441
369
248
285
598
794
719
556
475
459
444
431
427
427
422
403
388
396
382
378
372
343
321
299
286
268
260
263
283
318
345
406
438
428
451
464
460
475
487
492
479
481
479
458
463
435
408
415
421
406
426
448
450
434
440
422
399
420
418
395
415
439
443
460
464
459
458
462
453
439
456
439
311
185
288
621
780
631
459
435
423
411
412
414
406
402
396
399
399
382
354
335
323
303
270
253
268
268
273
276
323
355
385
418
437
428
447
458
461
457
441
435
436
439
434
431
430
412
404
417
432
421
408
415
406
410
401
391
390
391
375
398
408
426
419
423
402
411
427
426
439
437
447
427
328
195
268
601
786
679
491
440
415
403
404
405
409
408
409
395
391
384
376
364
341
327
295
279
267
265
276
281
305
362
389
394
419
428
427
435
437
439
439
436
440
430
423
425
422
417
414
420
419
427
423
430
431
441
435
437
432
419
402
424
430
423
417
433
438
450
465
462
458
474
468
454
446
433
362
249
295
570
778
751
583
499
475
480
465
444
442
440
444
443
423
427
419
396
374
353
330
303
288
292
292
318
333
375
418
444
462
490
503
506
505
514
518
513
505
506
499
486
483
478
478
473
473
483
481
458
435
433
429
450
428
423
440
461
465
469
468
468
474
478
490
493
484
471
460
451
423
297
243
494
755
758
581
483
464
437
423
426
417
403
406
407
399
393
379
366
355
333
305
287
275
279
280
285
305
356
396
429
451
450
462
481
480
477
470
454
451
442
427
416
402
406
406
413
425
426
430
433
423
412
411
412
385
388
394
387
390
420
441
439
454
467
455
458
462
460
449
435
431
324
196
336
647
789
650
488
440
427
427
417
405
401
394
400
391
391
380
373
368
354
319
295
283
266
257
260
279
317
362
393
414
431
461
453
457
468
458
461
453
449
443
437
436
434
432
433
425
430
428
433
427
435
428
414
414
415
377
392
414
399
391
416
415
426
423
432
437
436
449
465
453
452
400
279
250
480
744
774
574
490
465
456
451
437
427
433
429
426
427
411
405
405
369
352
323
285
253
259
238
249
291
348
395
413
430
465
466
467
454
457
472
474
469
466
451
442
439
435
438
435
428
441
423
431
434
445
441
435
425
421
408
402
375
372
395
413
435
438
436
453
443
457
450
471
449
438
419
347
229
254
534
732
704
540
459
448
439
437
422
423
418
424
435
435
419
413
403
377
357
326
317
312
305
328
344
361
384
425
447
484
506
499
483
481
489
470
461
480
466
461
452
445
443
446
445
449
448
451
451
449
438
428
407
419
442
448
453
467
487
497
480
412
388
409
395
384
385
392
392
309
228
393
645
735
606
465
428
408
395
389
407
414
403
410
425
415
417
408
387
341
347
346
316
299
271
291
306
323
377
401
425
446
463
471
475
469
459
471
464
474
440
422
426
423
429
431
440
433
419
405
418
428
425
423
405
400
392
408
415
441
466
480
473
465
455
444
465
480
466
467
443
292
241
451
733
803
609
494
463
437
439
436
426
403
407
409
412
412
393
381
375
357
335
301
277
284
292
300
309
347
389
412
419
449
459
462
457
454
453
453
472
472
517
477
448
431
375
389
365
344
348
364
376
393
374
378
392
384
394
416
433
433
446
445
435
435
445
453
477
464
432
302
210
377
646
721
604
492
456
436
445
435
435
435
430
422
424
449
458
402
363
353
310
277
271
269
279
281
292
313
343
391
420
442
447
453
464
466
501
499
485
480
420
517
502
362
390
316
247
404
422
411
453
373
396
434
429
476
470
448
428
404
380
398
427
423
448
443
426
401
319
281
477
646
667
593
522
526
508
472
448
440
437
426
436
455
456
441
435
433
405
371
332
301
311
317
339
374
407
437
455
465
473
477
477
485
492
492
474
462
461
472
463
458
454
460
459
445
449
447
419
421
439
459
454
466
472
483
498
487
489
494
496
504
491
471
461
331
274
488
745
766
618
513
496
487
479
479
484
469
473
475
474
495
469
435
422
404
396
359
333
334
327
346
365
400
437
476
450
420
459
464
478
490
506
485
405
415
451
472
482
482
480
486
500
501
495
462
448
443
424
419
444
460
469
493
495
499
500
506
511
501
489
446
304
274
529
801
794
626
505
488
493
479
460
459
454
453
451
452
445
443
419
414
398
368
331
318
328
336
356
380
425
458
482
504
502
502
500
483
495
510
521
518
483
487
481
486
494
472
466
459
446
445
435
448
441
447
462
481
482
483
509
526
511
528
543
542
530
527
474
324
320
596
829
787
604
526
496
462
428
405
432
447
442
443
437
408
388
403
385
377
361
347
335
315
326
338
374
413
436
463
480
480
488
492
494
487
484
471
479
471
438
441
434
437
454
467
463
510
519
398
408
429
425
403
415
421
437
441
452
472
493
499
502
508
489
481
469
361
256
403
706
829
693
546
513
492
481
496
486
486
487
472
473
468
446
429
425
413
361
304
298
302
290
295
317
354
409
456
491
478
534
566
549
540
570
532
492
500
491
485
464
472
473
486
479
478
465
470
458
428
418
422
430
434
466
469
434
463
482
484
481
489
471
451
456
410
267
231
496
777
774
576
466
455
447
446
418
411
409
409
385
375
373
361
343
351
326
307
300
270
246
255
253
287
319
361
397
432
456
475
473
468
470
479
482
471
458
460
464
460
460
462
460
457
460
460
468
448
449
418
412
412
398
409
434
458
460
471
495
505
499
485
491
484
480
442
298
237
444
746
816
649
530
506
473
476
465
447
463
453
439
444
446
430
419
402
376
354
344
315
290
288
305
334
384
419
441
463
473
478
485
496
501
496
490
492
482
481
467
456
460
452
458
455
447
442
430
432
419
406
403
417
423
443
450
466
459
450
454
463
454
439
424
432
438
430
350
235
322
633
827
731
549
477
444
419
415
414
405
400
394
392
392
375
367
364
339
319
306
281
273
269
267
291
327
361
399
429
444
440
452
449
441
448
446
446
450
457
461
452
456
468
446
426
441
426
408
427
430
427
423
403
400
414
406
410
431
448
454
462
471
477
464
447
452
436
414
392
273
216
395
708
764
631
480
453
463
437
423
420
399
395
399
397
389
394
388
374
353
320
285
245
201
227
228
263
327
365
385
391
409
413
423
421
416
401
391
415
413
423
426
396
408
404
403
420
428
424
419
419
416
396
415
424
414
414
428
435
450
462
467
472
483
489
509
482
469
428
320
326
595
818
755
578
515
492
473
469
453
441
451
460
463
445
439
432
420
400
376
361
352
357
343
325
337
364
384
414
443
447
441
444
462
493
489
473
476
464
457
439
434
441
447
448
457
468
483
468
460
421
411
447
450
440
464
483
485
485
483
481
495
496
484
469
464
454
348
262
458
761
799
646
499
452
443
417
401
396
388
403
395
402
379
343
336
343
322
299
293
259
255
250
245
268
313
356
386
401
401
423
444
434
427
451
451
453
459
460
465
468
465
456
439
434
445
418
419
436
442
447
482
485
490
509
512
507
526
523
516
514
508
485
362
302
496
787
844
673
528
477
473
472
461
460
453
439
440
441
433
412
407
385
369
352
329
311
311
323
327
351
387
426
446
468
473
484
531
514
488
464
439
442
450
439
436
436
437
444
448
450
435
437
438
433
406
402
418
434
460
438
448
456
482
484
455
467
463
455
446
358
230
315
631
772
679
546
470
407
369
390
414
414
434
436
441
443
434
413
372
359
355
314
295
305
306
323
363
400
440
446
440
455
456
472
484
471
467
471
470
466
473
474
479
459
452
449
434
426
413
429
448
439
428
450
457
452
475
461
456
473
476
450
432
431
417
301
216
375
663
753
609
465
442
422
421
406
393
388
365
360
376
391
383
364
350
338
325
314
290
271
236
240
299
350
396
423
440
453
445
451
460
465
469
462
453
451
445
447
446
430
427
426
418
440
417
422
444
436
444
447
466
452
473
465
452
470
463
468
479
476
435
288
251
488
782
796
611
496
467
469
472
471
466
458
462
459
451
443
429
419
392
371
351
315
281
265
259
265
321
379
418
457
483
491
479
476
486
463
431
406
386
395
428
434
436
451
443
438
422
407
403
387
402
412
427
446
464
478
482
482
477
481
477
484
483
470
423
276
187
398
735
797
634
515
493
482
463
472
433
426
426
376
375
368
343
321
297
263
257
275
242
235
231
221
289
317
343
411
431
437
459
466
463
471
495
464
462
468
429
386
369
382
405
381
356
364
342
345
337
342
361
390
426
433
418
414
411
413
430
457
466
481
435
332
336
572
733
698
623
546
492
461
440
406
380
391
403
397
348
383
419
375
337
327
307
320
317
318
319
312
350
349
379
394
431
472
475
479
499
512
502
481
501
539
504
453
456
420
410
353
309
342
365
388
392
429
474
467
464
483
468
464
466
464
455
462
460
381
224
223
499
673
599
493
477
439
471
515
523
499
438
433
429
413
382
364
336
309
336
320
295
294
286
268
279
307
345
371
392
420
425
452
461
445
471
467
475
471
482
486
481
499
486
461
477
447
427
458
451
469
484
519
512
515
539
524
529
544
526
522
518
494
375
343
554
805
808
662
556
495
473
467
471
475
489
479
465
458
461
451
426
375
351
338
353
326
299
309
335
356
378
430
477
483
464
484
511
497
488
494
485
470
473
463
456
451
434
413
414
389
374
412
404
377
392
434
418
421
403
410
423
412
399
416
433
409
283
179
359
683
779
605
469
435
399
393
405
390
380
384
404
394
382
352
351
329
338
312
306
290
238
259
270
330
370
387
424
447
429
412
424
420
442
463
439
461
441
421
440
424
431
424
413
428
409
428
415
393
379
390
448
435
447
460
471
470
462
476
463
458
349
216
330
642
819
659
510
499
447
451
459
452
441
435
448
431
428
419
401
408
382
350
309
297
284
291
303
326
379
418
442
474
486
496
491
483
481
474
480
481
471
455
446
435
422
423
430
404
376
417
437
433
480
484
504
510
511
520
511
501
512
489
470
412
250
228
497
704
669
529
460
441
423
411
406
402
407
406
401
409
407
408
395
387
362
310
287
278
264
251
252
295
375
378
452
511
492
489
480
473
471
457
478
469
470
463
418
442
460
454
472
451
375
333
353
384
400
421
445
448
442
452
445
446
464
468
448
368
240
258
552
793
689
516
432
386
412
388
396
405
407
409
411
408
398
399
380
348
331
305
290
296
293
305
290
336
397
422
441
463
459
463
475
466
477
476
482
473
477
472
463
438
424
422
415
413
413
429
430
462
479
484
490
517
515
506
512
508
498
492
390
247
329
649
818
715
554
498
466
461
454
445
434
425
420
413
402
395
384
371
355
325
301
289
277
276
276
299
328
380
427
448
482
512
496
467
471
467
467
464
475
457
458
438
433
428
395
412
396
417
422
423
451
424
444
458
480
483
476
471
475
474
473
427
275
297
557
825
768
571
497
453
449
447
432
444
429
429
428
417
412
403
386
354
330
293
278
275
250
265
307
336
387
447
469
479
498
495
491
505
511
492
496
506
503
496
488
475
476
464
435
431
451
447
442
456
475
470
480
482
490
486
483
488
490
483
377
226
323
659
857
744
553
490
475
459
452
450
438
437
429
427
415
394
378
368
342
327
310
283
279
280
279
304
356
404
435
462
474
484
493
490
486
488
493
479
461
448
441
421
428
428
411
414
408
420
441
435
433
463
468
479
473
467
468
481
474
476
471
434
297
196
413
750
815
632
489
459
429
421
419
409
401
410
400
390
380
373
369
348
326
314
274
258
249
255
262
295
332
372
409
433
447
470
463
456
472
435
411
416
434
422
420
418
425
425
419
427
421
415
416
408
414
421
458
450
453
453
467
485
494
484
469
455
379
222
222
533
827
768
569
506
480
474
465
465
469
456
449
445
429
420
405
381
355
337
310
288
283
292
297
313
347
386
427
443
455
460
453
456
462
451
439
434
436
405
395
408
407
413
418
395
371
379
362
382
431
412
382
377
389
402
426
448
473
463
451
462
449
444
337
218
316
631
812
662
490
452
432
430
430
426
417
413
404
408
404
391
386
376
351
322
305
289
282
287
304
325
334
367
413
422
438
455
464
470
455
443
434
434
428
435
443
434
432
427
438
442
426
422
415
406
392
414
428
428
434
451
452
461
471
475
476
471
473
466
438
317
268
488
771
798
603
499
473
463
460
450
440
439
438
425
421
422
414
403
389
371
361
329
315
307
310
327
349
385
427
476
496
496
510
518
503
486
447
401
405
399
382
380
405
422
457
464
451
444
429
423
391
393
415
426
423
431
436
450
448
450
457
456
474
475
464
426
322
347
585
730
705
550
462
451
445
444
450
446
446
443
439
443
437
425
419
394
376
346
318
322
309
305
333
360
395
423
457
478
483
491
486
479
474
472
470
473
471
466
481
473
457
454
448
440
435
425
432
412
423
431
432
444
457
456
466
469
470
470
469
464
461
465
422
289
311
579
765
714
555
478
471
459
455
455
452
433
422
421
409
411
397
380
367
350
340
328
319
311
316
336
356
376
414
440
454
468
469
454
455
455
439
432
429
428
427
441
440
435
434
429
423
416
401
399
401
384
377
391
395
403
420
429
430
439
438
445
449
452
450
439
401
280
225
422
694
750
602
488
471
452
444
436
432
425
419
414
414
410
403
393
382
365
346
328
313
318
314
321
345
376
411
438
453
477
483
493
495
488
485
478
478
470
465
456
466
462
452
466
471
469
462
462
457
442
419
430
440
424
450
472
486
486
485
493
502
491
498
492
486
452
317
286
523
790
795
623
510
482
472
468
459
457
454
451
448
443
437
427
406
391
368
342
320
314
318
318
319
341
376
412
445
460
483
482
481
488
486
474
461
458
455
450
448
442
445
441
446
445
434
440
439
425
423
406
399
403
414
424
443
459
460
463
475
473
468
472
466
466
442
323
230
380
684
799
644
494
458
449
448
437
445
446
438
424
419
410
393
382
361
342
320
300
288
281
287
298
313
348
390
420
447
466
472
469
476
465
458
448
443
440
434
436
433
438
436
435
446
449
452
446
447
452
441
444
447
422
438
448
448
440
478
478
485
498
520
504
489
512
516
502
457
339
291
553
828
816
625
521
496
488
481
455
463
454
467
446
444
435
417
400
391
371
348
329
307
312
305
297
346
364
411
450
460
480
488
483
488
474
476
449
448
435
440
447
460
456
442
462
460
461
448
441
445
422
414
408
393
395
399
406
446
454
433
444
457
453
445
453
448
449
415
279
188
392
730
814
625
486
459
440
434
429
413
412
419
409
394
389
401
383
359
352
320
292
296
302
303
306
329
375
400
432
458
475
459
481
489
483
470
431
420
414
412
419
416
430
425
433
444
440
441
439
428
422
418
410
404
419
420
419
442
463
457
463
464
460
466
474
471
472
461
364
265
365
674
837
689
527
478
457
448
443
430
423
424
422
418
427
417
392
381
365
339
312
298
295
301
312
329
355
393
423
441
462
465
472
483
477
480
475
462
457
456
450
445
450
448
450
455
455
457
458
451
447
442
432
427
407
418
421
419
429
449
454
450
461
459
463
468
457
460
447
408
299
261
469
757
785
602
479
441
421
424
417
421
423
417
410
412
409
412
405
379
345
340
306
291
291
296
306
334
376
392
423
450
453
465
470
472
475
472
464
452
437
432
435
434
435
431
427
432
438
430
443
441
439
441
436
441
418
388
412
415
433
456
479
495
515
518
505
499
497
495
491
461
375
331
436
693
789
676
529
487
473
467
451
451
445
455
451
449
443
436
431
426
400
376
353
322
294
276
284
298
333
369
403
432
451
467
472
454
444
446
429
424
430
432
431
433
432
439
435
433
441
438
437
438
427
421
418
418
390
394
413
420
426
458
464
456
463
460
470
464
463
455
453
436
368
352
526
702
723
610
507
471
427
419
417
424
434
418
427
432
443
437
415
408
368
330
327
294
286
295
296
319
363
387
419
448
462
455
459
462
459
447
444
434
435
432
427
440
448
447
450
449
458
456
447
443
445
440
417
420
420
421
434
446
452
463
460
463
465
466
459
460
462
448
360
277
401
685
802
651
501
458
440
437
438
428
422
419
418
416
404
383
378
377
348
319
309
300
297
300
313
339
356
385
419
444
462
469
466
462
460
459
452
441
443
445
447
452
464
479
469
462
463
453
458
445
427
427
419
405
408
412
417
433
441
442
458
460
471
480
482
495
498
484
444
310
312
571
818
797
613
521
508
487
471
467
464
455
455
454
459
451
444
428
403
378
350
327
322
327
327
340
365
403
439
475
496
502
501
506
505
506
511
506
500
491
480
469
460
453
456
454
461
466
456
451
449
444
422
430
436
417
421
436
437
449
458
462
465
476
489
498
492
486
399
290
353
634
810
721
540
482
468
446
441
442
440
436
429
427
422
412
395
391
379
352
313
309
294
292
309
328
362
406
440
463
472
484
493
503
499
503
496
491
486
474
463
459
465
464
463
463
468
470
478
476
466
477
470
467
448
441
458
467
464
479
489
499
500
497
498
499
494
490
490
482
420
307
320
600
846
804
607
521
492
471
461
454
442
441
434
431
426
418
414
408
390
368
340
325
319
316
320
342
365
406
444
473
487
492
504
498
495
499
497
499
492
484
473
475
469
467
473
479
483
490
482
478
470
465
468
439
447
458
468
471
485
495
498
501
505
508
508
511
507
497
487
402
285
345
642
837
757
572
509
491
479
471
464
464
457
453
451
443
432
419
398
380
359
330
310
300
297
302
324
374
420
449
476
506
507
518
524
514
512
507
500
496
487
487
477
469
481
475
471
459
464
462
457
441
428
444
441
439
455
471
474
479
476
490
472
461
470
466
470
465
400
272
302
604
819
739
561
480
450
448
436
435
433
429
416
420
416
395
392
396
363
339
319
304
295
302
315
332
370
410
432
458
479
491
500
492
496
491
482
480
468
451
452
451
449
451
448
451
451
455
451
451
448
445
443
425
429
431
436
446
453
467
474
478
473
472
468
469
467
456
453
427
312
252
445
757
807
642
508
478
457
456
455
451
449
440
437
433
414
409
399
384
359
343
318
306
300
295
315
343
394
431
449
468
481
487
501
503
501
502
503
489
487
490
485
481
485
476
477
492
490
488
477
484
479
467
465
435
429
454
455
457
478
496
489
507
517
498
498
504
494
493
491
488
423
297
312
594
820
758
557
475
459
437
420
416
415
412
403
396
383
388
386
372
355
333
310
287
271
287
289
280
314
348
383
413
433
436
435
465
462
452
447
461
469
454
451
451
451
445
446
441
448
459
457
461
463
464
454
445
430
420
436
432
416
424
430
440
445
458
469
473
478
483
481
475
478
477
473
478
486
404
290
343
636
807
728
564
488
474
464
467
460
458
458
454
456
460
452
445
428
405
379
353
334
317
320
332
349
377
412
458
480
487
507
511
504
522
525
525
517
507
501
490
468
474
479
473
468
463
472
472
474
484
487
486
478
477
470
461
455
436
416
436
427
429
437
473
472
478
492
494
489
491
478
482
484
475
430
303
269
507
774
791
591
488
463
446
443
440
417
416
410
402
398
390
386
375
355
338
316
307
295
296
296
315
341
379
418
454
473
491
495
496
493
492
478
476
467
457
451
444
442
449
445
448
448
451
447
455
465
468
464
470
456
446
448
436
404
428
424
427
437
459
467
479
475
474
478
479
469
471
471
470
451
341
249
400
691
792
638
510
469
453
448
441
433
433
423
424
419
413
394
386
371
349
326
303
277
281
295
300
324
371
405
430
456
470
475
487
484
485
477
466
465
465
457
455
453
448
449
455
453
456
450
453
462
454
449
451
444
451
434
409
428
429
423
433
458
469
463
476
478
482
485
476
475
478
467
455
334
245
410
732
811
649
516
476
465
460
446
444
435
434
432
422
413
417
397
376
345
324
303
282
279
290
299
329
382
412
449
474
500
511
508
517
512
505
493
492
480
472
461
468
463
466
468
473
469
472
467
470
464
466
453
453
427
432
441
440
442
464
470
480
480
482
485
480
483
486
477
482
473
405
259
273
579
823
750
561
485
466
448
444
440
432
417
425
414
408
398
386
369
346
313
287
267
261
259
272
293
330
385
418
441
463
476
489
487
492
479
478
472
461
456
454
448
447
444
444
444
449
452
455
455
455
444
441
430
427
406
414
422
420
431
453
458
463
465
460
469
471
461
461
459
450
432
306
212
382
708
812
640
513
466
450
449
442
426
427
426
411
404
402
395
373
355
331
303
290
270
272
278
299
323
368
404
426
460
473
484
486
488
486
479
470
465
461
460
447
454
448
443
453
452
458
459
452
454
454
453
452
444
441
439
423
415
423
422
429
441
459
463
468
468
467
468
470
471
464
464
455
401
277
254
520
779
748
557
487
460
453
444
439
426
420
417
405
409
401
399
378
363
338
303
291
281
277
284
306
344
383
415
441
463
468
472
480
480
475
468
467
462
452
452
450
445
447
444
439
441
445
445
446
446
451
454
449
451
445
444
435
435
421
413
417
425
418
434
452
456
465
465
462
471
471
474
470
465
461
413
296
300
557
760
737
579
477
466
458
453
439
448
436
438
430
423
419
403
388
367
338
316
295
284
293
292
306
340
385
431
463
487
502
502
507
509
504
497
484
477
470
465
460
458
459
459
460
464
459
463
460
471
464
471
471
461
459
460
449
450
428
425
435
438
434
449
462
467
472
478
473
474
470
471
467
467
459
415
282
261
505
762
752
572
481
462
447
437
427
425
418
414
410
408
404
394
373
366
342
316
291
289
287
295
309
338
377
410
441
463
472
479
481
480
476
475
467
460
452
454
449
444
442
449
448
446
447
452
449
454
453
451
450
453
450
451
450
444
431
431
429
407
401
415
417
422
435
446
448
451
453
458
462
462
458
461
451
443
368
266
307
584
752
681
523
467
452
440
436
433
430
426
420
414
407
405
397
387
368
344
321
305
298
302
309
322
346
390
421
450
470
479
483
493
487
490
487
482
474
472
465
462
460
464
459
460
463
467
466
471
466
469
472
471
470
474
473
474
467
468
459
459
444
426
439
445
442
451
469
480
481
488
490
493
496
491
487
489
484
468
355
287
445
737
812
661
518
488
473
468
464
457
451
452
442
438
432
423
403
395
365
338
313
298
295
305
309
336
374
416
450
479
489
509
511
516
507
511
501
490
484
478
466
469
466
469
471
473
472
474
471
476
475
474
470
479
473
475
465
463
455
454
440
423
432
440
436
443
461
470
470
478
473
474
475
475
471
476
467
453
354
258
353
669
819
678
510
476
456
446
438
434
426
421
416
415
401
391
377
364
340
321
290
279
273
276
280
301
341
388
419
450
465
481
484
485
478
480
474
469
461
460
445
445
439
445
445
449
444
452
448
451
448
451
447
451
443
453
447
444
436
433
427
413
400
420
418
425
434
454
448
456
461
464
461
464
461
460
455
451
403
273
247
518
787
765
581
482
459
446
442
442
435
430
420
428
414
413
397
388
366
350
318
299
284
284
283
304
336
384
423
455
483
508
515
514
514
501
504
516
493
493
488
479
472
476
467
472
480
476
466
476
468
465
461
465
462
461
453
460
449
443
435
437
411
415
426
423
422
443
456
459
463
472
462
468
467
469
463
468
454
395
263
271
548
804
749
547
470
451
433
431
423
417
415
416
405
398
379
374
353
333
319
297
274
274
271
282
299
333
371
413
436
461
472
486
482
489
480
473
464
459
453
450
439
448
440
446
440
446
446
448
449
450
454
462
458
454
448
460
452
443
438
439
436
420
404
422
416
422
435
459
457
466
472
475
465
466
465
467
463
461
424
320
291
498
747
782
595
491
461
456
451
449
440
431
426
428
419
419
404
395
382
364
344
316
285
304
301
309
316
356
401
447
467
498
510
512
507
512
499
499
485
483
476
474
476
476
475
478
473
483
479
486
481
484
475
479
477
478
471
484
473
466
464
469
443
439
448
451
450
457
475
479
483
488
480
487
480
480
478
480
460
424
308
281
492
726
730
574
469
462
440
440
436
432
418
419
407
417
406
402
390
373
351
331
304
306
308
311
324
353
382
424
453
481
492
505
502
516
506
501
490
480
471
467
449
445
438
449
448
450
461
465
463
483
472
473
475
474
468
474
446
427
433
439
440
455
472
473
466
472
477
477
470
473
470
470
462
464
372
283
382
675
815
675
507
470
444
443
433
428
420
433
409
405
398
385
379
360
336
320
285
273
260
265
289
301
338
385
423
447
459
478
478
475
479
477
466
466
457
454
446
446
446
450
440
455
446
456
459
449
450
450
447
450
420
419
424
428
423
443
463
464
464
469
459
472
461
464
459
463
453
455
339
247
387
677
808
651
479
463
444
434
429
416
416
410
416
407
391
384
377
359
327
308
268
261
257
256
268
304
338
382
423
459
460
482
481
485
494
487
472
475
456
455
448
445
429
461
448
451
450
447
448
458
438
439
438
425
401
412
412
420
420
445
446
451
451
457
453
453
446
449
441
447
433
394
266
229
458
747
755
563
466
450
424
426
422
418
409
415
405
407
398
394
377
364
336
310
284
273
273
286
304
351
388
422
462
492
502
517
517
521
515
509
503
500
489
493
483
491
496
497
492
500
503
503
501
497
491
495
488
468
468
490
490
484
499
519
514
530
534
532
532
543
527
530
523
523
496
392
291
439
754
878
711
554
508
486
475
474
459
456
451
444
432
427
417
404
384
361
326
301
287
282
279
305
323
374
415
447
476
499
494
509
506
505
504
506
498
485
475
469
454
458
457
457
457
468
471
473
472
478
477
473
454
450
447
440
418
430
433
438
443
466
461
464
472
481
453
461
467
454
437
435
421
328
190
231
547
774
679
481
422
402
391
386
375
375
370
370
357
352
347
338
325
315
282
258
237
233
231
239
256
291
327
364
390
408
413
418
428
430
430
426
423
426
425
425
418
435
432
434
438
443
446
442
446
460
457
466
464
460
467
475
464
466
475
473
451
459
460
456
455
463
473
476
481
482
471
474
472
468
463
461
447
382
263
283
559
770
717
532
447
441
430
420
416
408
405
404
398
392
395
381
362
339
314
292
276
268
268
279
299
330
368
414
446
460
476
486
494
500
507
508
492
484
488
496
480
483
473
475
483
487
496
502
492
499
503
504
504
508
507
506
504
498
481
479
471
455
462
463
462
456
483
503
491
486
502
488
476
499
474
445
470
460
335
228
310
589
765
669
503
460
444
428
422
411
407
406
398
403
408
382
379
354
319
312
287
259
259
258
268
281
307
357
384
396
419
445
450
447
447
443
437
443
432
420
420
421
405
410
423
422
437
445
436
427
427
429
431
434
428
425
427
404
390
395
399
401
418
433
435
424
431
432
437
427
444
435
420
431
395
288
294
530
670
630
518
435
416
411
407
406
404
407
407
396
410
409
415
402
387
371
345
319
325
324
310
324
357
382
407
432
459
474
487
481
502
503
486
470
477
479
470
474
480
479
480
488
490
492
483
482
484
464
463
451
431
445
435
415
416
429
428
433
436
438
445
437
427
436
446
436
422
342
251
340
610
756
656
486
439
435
430
406
413
422
410
416
408
408
396
377
366
356
334
307
306
304
302
309
325
363
399
436
459
471
481
489
495
493
495
495
490
486
486
486
471
475
481
477
474
483
480
476
472
464
469
447
443
454
457
464
480
497
497
496
501
503
504
511
512
502
513
504
462
359
302
475
760
831
686
533
511
505
485
488
481
473
472
455
456
449
430
421
400
370
348
323
307
309
313
327
356
396
435
464
478
496
496
502
505
497
498
502
485
476
469
455
437
440
439
454
451
461
461
456
451
448
433
430
441
454
456
470
476
470
475
478
477
473
469
480
480
473
464
440
324
263
440
734
818
662
512
486
472
464
455
453
453
454
449
452
452
434
410
392
365
334
317
316
299
302
324
353
399
432
457
469
471
488
488
487
493
498
498
488
496
491
479
479
480
484
475
486
489
492
494
490
485
482
478
455
458
480
485
494
519
519
533
542
544
543
548
546
545
544
534
519
419
323
421
727
889
759
580
522
508
490
477
477
472
463
456
453
441
430
417
406
379
349
326
306
296
302
310
336
373
414
446
476
489
502
513
517
512
505
497
498
490
486
485
482
481
484
481
484
476
473
478
488
484
486
484
476
465
465
462
446
451
454
448
456
478
486
493
499
496
499
500
496
486
488
485
454
331
282
473
781
837
669
528
489
474
470
458
454
450
443
441
436
437
430
415
397
376
350
320
304
307
303
318
343
379
421
451
476
489
500
512
509
515
510
504
503
495
494
487
482
479
480
477
478
479
482
484
493
496
497
499
496
502
496
489
481
483
461
455
464
462
465
492
506
509
518
518
512
519
524
514
512
512
492
399
307
408
726
872
745
578
529
505
500
490
485
489
478
481
472
468
460
450
433
399
374
357
333
335
338
344
363
396
439
475
499
519
533
545
551
536
540
533
531
527
510
494
482
487
485
483
484
491
497
497
489
487
491
485
479
476
469
466
454
438
448
457
454
457
482
474
480
490
492
492
493
489
489
487
484
467
357
268
403
705
849
690
514
476
455
438
441
437
431
429
432
422
417
404
384
371
350
326
296
283
282
283
300
323
367
408
444
472
488
497
504
506
501
502
497
495
492
488
484
477
471
465
460
462
451
453
456
456
454
468
469
452
470
482
460
458
457
433
433
440
450
458
470
504
503
517
528
515
508
520
514
508
503
505
464
319
297
571
803
789
607
494
465
444
433
433
420
399
386
380
373
369
361
349
330
316
296
281
265
265
263
275
306
346
378
411
437
457
463
462
465
472
478
469
461
459
460
455
447
445
448
447
448
453
453
456
458
462
466
463
461
457
445
451
452
445
441
428
406
413
420
422
423
454
459
468
483
487
483
489
486
484
486
483
449
321
254
433
733
826
641
503
473
448
434
424
420
419
417
402
406
402
390
387
360
338
314
281
262
263
263
267
294
352
411
451
472
484
495
501
511
513
507
509
484
489
487
473
479
479
491
484
496
508
504
505
506
516
525
511
497
512
497
487
469
473
454
462
464
457
466
481
487
496
494
494
492
490
488
494
484
482
469
371
264
381
678
836
700
523
481
461
440
435
440
431
420
426
422
414
410
397
374
356
335
305
279
272
270
287
307
347
380
416
442
463
479
493
494
490
489
488
476
466
451
448
447
439
433
434
431
435
439
449
449
450
457
455
458
455
451
457
454
451
440
437
438
430
406
403
413
409
409
434
439
440
448
455
449
458
455
458
462
457
434
357
255
320
607
809
709
522
467
444
430
435
427
422
420
413
404
397
390
370
382
352
302
287
281
260
254
265
295
324
367
409
440
467
484
494
502
487
477
486
487
478
480
475
460
466
455
451
436
438
438
441
445
459
458
466
467
462
463
463
468
471
480
504
506
435
423
408
350
326
324
363
399
419
452
477
480
478
475
475
467
463
457
450
451
433
317
241
442
737
783
629
505
491
479
471
449
437
417
419
428
407
396
389
378
370
355
328
315
299
292
298
300
323
352
376
410
440
454
460
472
474
471
464
457
453
449
452
451
455
462
448
453
462
468
473
493
483
481
483
482
474
461
451
443
451
432
419
422
424
431
442
451
460
461
454
459
455
459
462
462
461
458
398
348
415
626
717
669
556
495
487
479
485
478
464
475
464
453
448
446
428
415
406
387
344
333
335
335
332
349
375
393
433
455
471
487
498
506
500
496
488
483
482
477
469
465
458
463
464
460
457
463
457
454
463
473
463
448
442
438
417
399
408
423
436
449
470
474
493
499
511
515
504
523
508
503
491
416
321
392
645
788
728
572
493
476
466
464
459
451
446
446
444
437
424
412
407
389
351
327
285
272
259
274
287
316
364
397
435
458
463
470
479
470
465
459
454
440
432
422
428
444
448
444
452
462
448
440
428
436
433
439
425
428
414
421
419
427
434
459
468
468
470
482
484
480
474
476
479
476
455
377
296
391
649
768
689
539
486
474
456
457
451
446
437
433
429
424
415
404
391
371
344
321
300
289
294
296
312
355
393
428
442
448
463
462
441
431
429
437
449
446
446
452
455
464
477
471
435
423
428
420
428
423
417
417
416
416
388
395
398
404
416
425
446
449
471
480
491
495
490
506
504
500
487
434
333
329
598
832
796
620
539
508
488
482
478
486
473
462
463
467
460
419
424
413
378
349
332
302
307
304
295
327
364
403
430
474
505
513
532
527
533
543
537
527
509
513
514
484
488
480
471
503
474
464
472
458
457
464
459
438
413
438
442
436
440
480
470
462
480
477
478
472
476
468
473
471
437
334
274
473
726
785
645
501
473
460
447
446
445
434
435
450
443
441
425
419
400
371
334
269
237
190
190
201
255
310
349
387
425
439
462
465
471
483
493
497
496
489
475
467
459
449
460
460
452
435
435
435
429
420
420
394
406
412
403
412
451
472
477
498
500
501
484
476
481
467
462
452
381
228
230
509
744
717
517
436
435
411
411
414
415
407
407
399
391
384
372
366
348
310
278
252
238
234
246
267
308
357
399
436
461
473
482
487
491
478
472
476
464
455
448
443
444
439
439
437
434
432
436
430
429
423
426
448
432
410
424
423
427
449
472
467
477
490
481
471
469
476
486
489
477
431
293
272
526
803
800
578
489
468
454
453
447
444
440
435
427
422
418
408
404
381
353
329
298
292
286
300
293
313
358
390
426
445
463
471
484
493
486
470
453
392
382
397
405
404
416
440
452
450
452
473
472
455
451
455
457
458
445
446
452
448
448
457
486
479
476
482
486
478
451
434
437
440
443
377
285
315
564
699
655
520
468
463
460
456
452
475
486
453
445
417
396
357
319
340
343
330
313
316
332
337
351
377
405
436
452
470
480
481
495
497
490
497
512
507
482
473
477
465
448
446
467
460
445
448
441
465
463
451
450
460
477
484
494
512
512
514
525
495
510
517
515
527
531
524
500
405
354
482
707
774
660
547
490
484
489
458
467
469
463
460
472
496
467
460
439
389
369
341
315
309
328
335
360
391
404
434
467
471
498
499
498
502
507
495
489
484
482
475
464
470
470
468
473
463
476
479
474
463
441
434
430
425
440
443
449
471
481
483
503
515
505
512
503
507
505
502
500
454
345
339
593
832
831
654
550
521
497
494
492
478
482
486
478
477
478
464
443
422
396
362
331
312
306
308
314
336
375
405
435
451
465
481
484
482
479
472
470
463
457
449
440
430
429
444
448
441
452
453
452
450
443
438
440
421
428
436
443
442
462
463
458
465
462
465
466
459
462
460
454
440
348
272
387
682
817
708
546
491
477
471
467
467
468
460
452
450
440
425
420
405
382
356
342
314
304
302
298
320
372
412
443
470
491
496
504
511
512
508
501
498
488
477
486
484
472
478
479
480
487
483
480
495
499
500
504
498
489
488
496
483
463
463
483
472
468
495
493
498
507
500
505
503
508
498
496
480
456
357
274
398
678
792
661
512
478
463
450
441
438
434
430
423
418
412
404
395
380
357
335
311
291
288
293
296
313
343
377
406
440
451
464
469
467
475
464
458
451
444
434
435
427
424
426
420
425
424
424
435
435
435
434
434
435
435
436
439
435
432
422
428
436
419
419
439
439
427
428
419
406
405
412
415
423
424
430
432
426
424
368
263
303
582
792
731
529
450
436
411
404
403
400
403
398
402
395
392
383
368
352
329
308
282
268
278
278
289
317
364
404
431
452
474
493
501
502
495
495
503
496
495
493
489
488
486
480
477
477
479
477
478
473
468
476
479
479
482
479
475
478
480
484
483
479
480
475
470
473
473
470
454
459
464
466
473
489
500
496
498
501
499
494
495
497
497
493
460
351
322
498
722
779
636
503
468
452
443
442
444
442
440
439
435
430
424
416
404
383
362
339
330
323
320
337
347
370
411
445
466
483
497
502
506
508
501
501
500
493
489
480
473
470
466
463
462
466
471
475
480
485
488
491
487
483
487
491
493
491
488
491
489
490
488
482
477
465
465
457
450
451
459
460
456
481
492
496
497
498
504
500
497
509
501
490
477
383
306
438
698
807
690
541
506
500
491
486
476
481
483
478
471
463
456
437
418
400
377
358
340
333
327
331
349
377
409
444
476
497
508
520
528
522
521
514
504
496
480
475
474
468
469
471
469
472
476
472
474
473
465
467
478
477
472
467
466
459
449
445
440
438
427
418
430
436
435
446
454
455
465
464
457
453
449
448
447
445
444
400
273
271
527
750
743
563
463
448
436
428
421
415
416
415
409
399
398
391
385
371
345
322
295
284
280
281
293
318
352
394
426
448
462
473
488
498
491
487
477
473
459
448
428
416
410
399
393
402
412
413
416
421
418
419
419
420
420
423
420
416
404
399
397
399
392
383
402
413
414
421
446
438
440
455
452
451
451
452
453
448
447
415
307
273
466
708
768
617
486
450
440
433
430
422
420
420
409
400
379
380
386
377
364
343
318
298
296
294
305
322
360
407
440
469
499
519
527
530
533
526
530
529
523
512
509
507
502
496
496
498
508
515
523
522
522
517
512
519
516
512
518
509
504
499
490
485
485
483
487
493
487
514
527
519
524
530
531
527
527
541
523
496
499
431
306
332
629
822
762
571
491
465
433
427
418
411
412
415
403
399
403
397
384
377
352
330
303
284
283
294
308
331
362
405
446
466
485
494
503
505
504
503
498
501
493
482
476
476
474
460
451
438
433
432
436
432
425
426
436
435
437
440
421
420
416
409
416
409
409
416
416
413
441
444
452
458
457
452
454
453
457
455
451
438
332
225
337
635
805
687
501
464
441
425
423
415
412
411
404
404
399
389
370
359
344
316
285
253
243
249
256
279
316
358
394
423
443
460
470
476
484
490
485
480
479
468
464
464
464
461
462
459
456
452
451
453
452
446
457
459
460
465
464
455
452
458
449
448
437
447
454
452
463
497
495
492
501
505
513
509
515
516
519
501
471
346
267
468
775
861
686
541
501
488
480
472
467
462
458
452
456
449
436
428
411
391
360
329
305
300
298
305
335
379
417
453
488
509
524
528
535
531
537
530
534
521
519
513
509
497
493
496
489
489
490
493
490
490
491
491
494
491
483
476
466
464
455
449
442
438
446
444
436
459
463
462
473
470
477
486
484
485
485
480
474
400
252
277
591
829
781
571
496
473
447
443
432
428
427
415
416
417
410
405
399
376
346
316
283
264
266
268
282
321
372
411
444
466
482
492
507
499
497
495
493
484
480
467
467
456
452
453
448
445
446
451
455
454
461
462
462
463
462
461
460
455
451
449
439
429
426
420
417
406
420
427
426
434
456
451
458
465
465
456
465
465
463
462
451
427
318
240
403
726
845
671
510
465
446
434
428
423
420
424
417
405
413
402
396
385
368
347
313
295
292
273
286
301
336
388
418
451
472
488
490
503
512
514
512
513
512
495
499
489
497
501
474
474
482
480
491
483
482
483
484
480
488
477
478
486
489
467
466
458
452
441
453
438
424
438
438
436
457
463
456
460
467
460
467
467
461
459
456
454
405
277
264
514
797
817
621
496
461
444
446
435
433
441
444
435
426
421
435
401
386
374
342
327
294
289
307
297
330
369
400
445
472
489
498
499
513
517
518
513
508
508
500
497
503
492
485
472
473
476
476
464
475
473
474
475
472
467
468
467
468
469
462
455
449
447
444
439
425
436
440
436
450
464
462
472
481
476
480
476
480
483
478
477
467
379
263
324
630
820
750
543
480
450
446
436
428
424
431
423
419
422
414
410
406
382
355
332
315
293
294
310
303
338
391
422
467
486
494
507
515
517
521
514
508
513
507
497
497
490
487
481
476
477
480
476
478
480
481
476
469
468
472
467
464
465
467
459
457
454
451
444
438
443
427
437
444
429
437
467
467
467
480
472
462
455
465
466
471
467
456
414
288
256
479
743
779
580
463
436
424
403
402
398
394
401
395
376
372
369
353
339
335
306
284
270
256
261
269
287
327
362
400
422
443
446
454
460
460
453
456
449
445
428
423
417
413
398
383
388
383
385
375
374
386
375
385
389
386
400
400
397
408
400
409
436
408
416
421
412
411
406
412
411
432
423
455
449
454
468
476
474
453
467
483
468
466
446
430
332
228
359
672
792
662
509
476
459
444
442
433
426
423
420
415
405
400
391
389
348
324
310
284
275
268
276
297
320
365
409
446
466
476
483
496
495
492
485
474
464
457
450
453
444
434
433
441
448
451
457
461
456
455
462
461
460
464
467
476
466
461
467
467
462
462
458
447
439
434
427
437
432
442
447
446
447
475
464
472
476
475
478
486
486
479
480
484
469
405
278
286
565
821
773
566
490
470
448
441
435
435
428
429
418
415
409
404
391
377
355
326
300
289
280
288
300
325
358
398
440
464
480
494
495
501
497
500
492
484
488
483
473
470
464
455
451
457
453
452
452
456
466
455
454
462
458
461
465
467
459
465
473
460
449
450
457
452
439
435
450
454
445
467
475
479
481
488
487
492
490
490
482
488
480
462
382
273
363
668
827
711
532
489
465
459
466
450
448
447
440
446
429
430
423
402
386
364
336
320
303
299
302
316
348
387
423
451
475
496
511
516
510
511
503
500
490
480
473
464
462
461
455
459
457
460
456
462
460
463
461
467
469
465
462
463
464
465
464
463
456
453
440
445
436
429
426
441
442
439
451
457
456
464
462
467
466
469
462
464
457
451
432
334
241
355
648
808
674
503
461
443
433
425
414
413
410
408
400
399
392
387
372
355
325
304
285
271
272
275
287
316
351
390
417
446
461
472
475
485
480
476
476
473
461
462
460
456
450
447
445
454
454
452
454
461
458
459
461
463
461
469
461
456
459
462
460
460
457
439
436
440
431
436
437
451
448
444
454
468
462
467
467
469
467
475
472
472
470
464
428
314
261
448
729
815
633
498
466
451
441
441
432
434
435
430
425
423
409
408
393
376
353
324
305
295
289
294
308
334
371
411
436
462
470
468
480
487
478
476
470
469
466
464
454
454
450
447
449
451
450
454
453
457
452
464
462
459
464
462
462
464
467
458
457
454
444
446
438
433
435
437
448
447
441
451
456
460
472
468
467
474
471
476
475
481
467
393
279
311
589
813
772
577
490
462
446
439
432
423
417
418
411
408
403
394
381
374
349
327
304
287
284
290
299
330
362
396
423
456
471
488
491
500
499
492
487
477
476
474
467
458
448
455
456
456
453
462
454
455
459
463
466
465
467
469
463
469
463
453
450
444
435
441
442
453
444
449
458
465
470
473
465
466
457
464
469
465
457
452
373
261
301
601
809
709
519
471
456
435
433
433
416
416
420
418
407
404
390
382
362
344
315
292
278
285
287
304
322
356
396
427
451
473
484
493
489
490
491
489
484
485
473
472
471
469
470
460
459
468
465
470
473
472
470
471
469
476
473
477
472
460
460
454
447
448
449
463
458
455
452
462
463
463
466
468
466
467
465
468
467
460
444
352
257
365
679
825
671
506
466
453
438
437
436
427
425
425
415
419
409
399
384
372
346
326
303
293
289
303
313
336
371
413
443
458
470
477
483
487
481
487
478
477
472
471
467
460
458
457
454
459
456
462
456
461
459
464
462
457
463
454
456
460
460
459
457
447
442
439
431
430
429
437
426
430
439
461
450
465
479
468
470
475
471
468
465
470
451
347
309
447
772
860
704
538
504
488
459
462
458
441
445
441
440
436
428
418
403
387
353
336
307
294
294
293
300
328
360
402
427
455
472
475
481
483
483
477
475
465
462
468
456
452
456
456
452
458
461
463
459
462
463
469
467
473
470
472
464
472
472
463
453
457
446
447
450
455
462
454
447
458
473
473
476
473
474
475
474
475
469
470
459
422
310
286
516
772
766
553
474
463
444
436
430
431
424
417
412
414
408
399
386
370
354
336
314
307
294
301
310
312
346
379
405
440
460
471
476
477
480
477
467
474
470
467
459
454
450
456
453
458
459
461
460
459
458
461
459
456
457
458
464
457
454
456
445
436
432
427
429
438
435
436
428
437
448
446
442
443
444
443
446
448
440
438
433
374
305
370
627
787
678
493
458
436
423
427
427
426
421
420
418
414
402
405
398
376
359
342
323
311
311
304
303
332
356
390
419
449
462
471
472
477
468
468
467
461
462
458
458
451
454
457
454
460
460
459
463
457
451
462
458
461
462
466
462
461
461
462
459
447
437
437
436
442
442
433
434
451
454
460
471
470
479
481
471
478
478
479
470
444
356
352
595
796
789
629
516
487
456
455
452
447
456
451
437
437
430
427
413
393
381
355
333
317
303
301
298
310
338
383
406
444
464
473
482
481
474
476
467
465
461
474
463
456
464
451
455
464
458
463
463
461
467
474
462
460
464
474
470
477
452
448
454
439
436
447
449
453
445
449
471
483
485
495
495
500
498
500
499
500
490
466
365
303
465
737
799
628
499
478
455
451
450
453
449
442
430
424
412
413
400
397
371
356
320
309
308
302
319
315
332
368
401
429
444
468
489
482
483
480
472
470
475
471
471
462
464
457
458
460
468
460
468
472
462
475
475
471
472
471
480
473
463
462
455
448
447
451
466
460
461
462
469
466
487
483
477
477
472
476
480
476
468
417
324
351
583
761
709
530
470
440
431
443
425
422
428
415
411
419
406
393
384
369
347
344
328
314
311
306
313
336
368
406
434
451
472
491
489
490
483
483
483
476
469
465
461
456
452
453
454
450
460
457
451
452
463
454
446
452
455
457
451
439
442
435
431
423
429
443
446
439
442
454
457
463
468
466
466
466
468
464
467
459
420
322
316
539
754
752
588
479
457
447
440
433
431
429
429
420
414
414
405
397
384
371
355
340
318
316
316
318
329
352
387
416
445
461
473
479
480
487
482
480
475
472
472
464
460
470
473
469
464
456
471
468
468
470
469
472
475
474
492
476
457
462
457
462
465
465
476
481
490
481
500
499
501
502
498
485
491
496
501
473
476
414
307
338
607
789
734
564
488
478
452
448
446
434
431
431
426
423
420
413
404
385
373
353
326
304
305
307
317
329
369
403
405
451
466
471
477
488
478
471
474
461
466
464
460
457
457
456
457
460
464
459
459
462
463
465
470
470
465
461
459
457
446
441
426
438
457
445
434
435
446
444
460
454
457
468
463
470
478
464
433
313
235
387
691
815
648
499
466
451
440
430
428
421
424
422
422
416
412
412
395
373
368
332
302
295
289
294
307
324
380
411
431
459
469
480
486
484
480
478
479
477
475
472
473
470
454
451
453
457
447
445
453
453
457
459
455
448
457
449
446
441
438
441
438
447
446
446
442
458
459
464
468
469
458
466
463
455
467
457
400
281
280
516
745
731
562
460
438
428
425
422
415
410
409
407
404
407
394
389
383
363
343
308
297
287
288
292
316
344
384
407
432
452
460
460
456
455
468
463
460
456
455
445
454
443
432
440
439
434
439
434
437
433
443
456
455
451
452
449
441
450
442
432
442
430
439
448
433
442
459
452
460
468
468
466
462
460
460
461
458
405
315
341
568
761
742
571
479
452
442
435
436
433
424
432
426
418
411
407
404
390
375
355
333
318
312
319
315
330
360
392
419
444
462
467
479
484
479
478
480
470
464
459
459
450
448
459
449
444
446
439
443
451
453
450
448
455
453
455
451
448
425
431
434
426
426
432
448
447
450
434
458
469
464
469
473
476
474
467
477
471
437
356
319
431
705
774
657
511
461
446
435
428
429
423
429
424
415
418
415
401
394
387
367
331
321
304
309
307
317
338
367
399
424
443
459
472
474
474
467
468
467
462
463
455
455
455
458
448
448
443
449
439
437
444
445
444
445
449
446
449
451
451
447
445
447
434
440
448
449
453
447
451
461
465
460
449
460
458
458
459
459
447
401
322
368
599
756
712
563
462
448
436
432
427
424
417
417
414
415
413
399
385
385
374
340
320
323
321
316
324
336
361
394
420
450
461
478
478
487
482
479
480
475
471
475
471
470
461
465
460
464
464
464
467
467
475
472
456
457
460
448
442
445
432
424
412
430
428
433
433
432
438
448
462
474
476
472
463
478
487
481
480
483
476
401
310
429
727
840
699
548
500
485
480
478
465
483
483
442
435
440
438
437
426
416
384
356
341
327
325
331
331
351
379
417
448
470
488
498
497
503
504
492
491
492
475
472
463
461
455
452
450
449
448
447
443
447
438
433
433
433
424
431
432
426
423
426
410
411
419
432
429
428
434
441
436
445
443
445
442
446
437
436
435
420
330
246
350
634
796
683
492
451
433
425
416
407
405
405
406
405
396
399
384
377
365
339
312
286
271
268
272
285
308
342
379
412
428
446
457
464
459
466
462
459
458
454
449
446
445
441
438
438
437
440
435
439
443
445
442
449
449
452
450
449
445
440
437
430
422
432
433
446
440
442
439
458
458
458
454
456
461
458
455
455
451
438
362
263
317
612
803
736
545
468
451
435
424
430
422
424
423
421
413
415
409
398
387
365
342
322
298
292
297
311
317
363
400
433
460
473
483
492
490
494
492
496
488
491
486
481
481
470
467
462
457
462
464
465
466
471
475
468
470
476
471
474
467
478
470
462
460
456
455
458
464
475
472
469
483
484
463
472
477
476
475
474
477
479
474
465
389
271
313
621
828
760
552
481
463
448
441
435
432
431
424
421
418
415
404
392
378
359
328
306
289
288
285
290
316
349
387
420
445
466
475
482
483
490
490
486
481
476
470
471
457
460
456
449
451
451
451
452
452
458
455
458
461
462
462
458
460
459
453
455
448
444
438
430
434
436
446
451
441
441
458
461
457
461
456
460
461
461
453
456
453
435
362
241
280
589
807
716
520
462
439
432
426
420
419
421
412
401
392
395
392
377
358
344
316
297
280
274
273
286
305
339
379
414
438
464
471
480
481
484
484
483
478
479
471
468
464
461
452
452
452
449
449
453
450
448
448
454
454
454
455
455
451
455
454
456
453
454
453
453
438
433
431
426
427
438
449
441
432
440
455
453
455
452
449
453
457
451
453
454
446
422
316
268
423
710
798
619
477
449
424
423
414
415
409
407
400
399
395
392
384
372
358
340
315
297
287
285
286
293
316
343
371
404
426
440
452
458
457
463
461
461
455
454
448
447
447
439
437
435
435
438
440
442
444
449
447
445
450
452
448
450
450
456
455
455
455
455
454
453
453
457
449
443
435
437
436
441
451
450
442
449
459
462
470
471
474
470
473
475
471
473
473
468
418
313
325
597
791
745
559
479
465
451
442
446
439
438
435
427
428
425
416
410
396
379
358
340
322
315
312
319
331
352
384
419
447
464
480
495
494
496
492
487
490
479
467
467
464
462
457
457
455
459
456
458
462
460
462
463
462
466
462
462
460
460
458
460
461
462
457
448
442
439
436
430
423
427
429
441
436
437
440
452
456
462
459
459
460
462
463
461
460
458
442
355
241
321
615
801
689
502
467
446
435
428
420
419
413
413
409
401
398
395
383
368
352
331
305
294
293
297
298
315
340
376
406
432
454
466
472
475
479
476
472
472
466
459
457
454
448
450
445
441
439
441
449
451
446
449
451
453
456
456
458
462
460
456
455
455
457
456
453
447
436
436
428
430
433
446
447
440
439
455
459
455
457
457
459
455
455
457
457
451
436
368
248
287
574
795
715
516
461
440
430
423
419
417
412
406
406
404
399
392
383
373
354
332
312
298
291
295
304
315
334
371
403
426
450
462
471
472
472
475
471
473
467
458
458
457
451
447
442
443
446
449
447
447
448
447
451
453
452
454
455
454
453
458
454
454
457
453
446
449
446
440
436
433
430
435
440
449
445
440
443
458
454
461
460
456
460
459
458
460
463
451
420
318
290
487
745
781
586
479
457
437
433
430
427
422
415
416
416
409
403
396
384
366
355
337
315
308
305
311
316
332
357
391
422
443
457
466
467
470
470
470
468
462
460
458
451
449
449
447
447
449
450
454
455
455
458
460
455
457
456
456
459
457
456
457
463
460
449
451
454
452
442
437
430
428
431
432
441
438
435
440
448
450
455
454
455
452
457
459
456
456
448
406
334
349
556
749
735
551
461
446
431
424
419
418
417
413
411
411
406
402
395
387
374
355
337
324
316
316
318
326
346
377
410
439
466
476
485
488
494
493
488
486
484
477
472
470
470
470
465
468
464
474
474
471
481
477
480
479
478
487
484
483
487
479
481
486
484
480
482
471
466
467
463
461
465
473
471
469
467
480
487
489
487
489
488
487
488
482
486
482
443
341
336
591
796
756
566
482
467
456
451
442
443
441
435
430
424
424
419
407
399
384
362
341
329
318
316
320
330
348
382
412
443
465
478
488
491
493
490
487
483
476
471
464
460
459
456
455
457
456
457
458
458
456
456
458
461
457
459
460
460
461
457
456
458
452
442
440
436
430
434
437
447
441
438
444
452
456
458
451
453
452
454
453
455
453
441
379
261
287
553
771
729
523
459
438
423
419
412
411
407
400
399
393
389
381
374
363
348
328
303
287
283
279
284
299
323
357
390
418
440
455
462
466
467
466
465
464
459
457
452
444
443
440
441
438
439
437
440
443
445
445
446
444
448
449
448
449
448
445
446
444
444
438
426
425
422
423
422
435
440
432
431
443
448
454
454
451
449
449
454
452
453
452
432
345
272
370
648
799
678
501
457
436
428
423
417
413
407
406
406
398
392
387
378
365
347
327
306
294
287
295
297
317
349
383
417
444
462
469
479
488
485
480
484
477
480
482
472
470
470
465
467
469
469
458
465
473
460
452
458
460
465
464
463
467
465
464
466
464
462
463
460
449
447
441
438
441
447
458
455
456
466
472
470
469
474
472
469
469
469
467
461
449
387
283
315
580
786
732
537
467
453
445
438
434
431
427
419
424
419
407
405
396
383
364
350
329
305
303
307
306
318
340
371
399
427
450
467
472
482
483
481
474
470
470
475
465
456
450
445
440
435
438
440
436
444
443
434
429
426
430
436
451
464
452
454
456
459
454
453
462
453
449
439
437
443
442
454
469
466
457
472
479
491
495
481
478
502
486
459
474
469
456
369
271
366
671
804
699
520
460
444
421
402
412
401
397
398
390
392
387
386
374
372
355
330
308
304
284
291
299
311
340
373
391
427
450
465
483
498
497
487
497
506
515
520
482
480
479
477
471
458
454
457
457
463
457
464
464
465
464
461
460
458
454
452
453
451
447
442
440
433
428
432
428
444
439
435
443
455
456
463
462
463
460
462
464
460
458
458
432
314
231
394
694
800
619
489
471
443
434
433
426
420
415
413
406
406
394
392
379
355
341
323
299
284
284
290
307
327
351
381
416
441
454
463
475
478
480
479
472
470
466
464
456
457
459
451
451
448
450
457
452
453
450
448
444
442
429
456
445
436
440
446
439
435
446
461
435
446
434
443
455
459
464
467
479
490
501
499
498
501
485
482
486
485
474
437
319
295
554
801
794
606
509
482
454
463
448
449
443
437
437
432
425
417
398
388
373
348
323
306
290
291
289
301
325
361
390
423
449
459
472
482
482
475
473
471
464
464
458
455
450
451
450
448
444
450
451
457
463
456
459
465
449
447
464
468
469
470
455
466
458
445
445
449
450
445
453
460
454
463
460
471
476
477
478
479
477
478
483
475
474
473
415
316
350
648
828
752
562
494
482
463
466
450
442
448
442
438
431
420
404
399
392
368
346
316
301
295
291
292
309
339
371
405
434
464
470
485
482
489
487
469
466
458
452
454
451
448
444
451
439
438
443
453
454
458
456
460
456
457
458
459
459
464
461
463
460
455
453
450
448
452
457
471
460
464
473
480
483
489
486
489
489
499
507
496
495
486
422
306
344
629
860
801
584
532
492
469
472
464
459
460
458
457
454
444
434
428
411
399
376
357
337
324
330
337
346
372
403
435
462
483
503
513
512
517
516
514
514
514
511
506
504
498
496
493
494
498
490
487
491
492
483
498
504
501
506
508
510
510
507
507
499
494
494
478
479
482
487
500
487
494
509
504
505
513
504
508
512
508
507
506
499
497
411
291
352
638
838
742
547
504
487
476
470
465
461
453
443
446
443
432
426
415
404
388
369
353
325
325
317
318
334
368
397
431
460
483
496
504
510
510
505
505
496
498
493
492
480
473
480
476
470
473
475
474
472
472
475
478
476
473
475
473
471
475
473
473
471
459
461
455
452
457
459
472
467
463
471
479
474
476
474
473
468
472
468
471
461
458
381
266
312
602
808
729
530
476
453
443
436
429
423
422
413
412
409
404
396
387
377
361
339
324
305
294
302
308
322
348
375
407
435
461
477
474
472
472
470
472
473
472
472
475
466
460
454
455
449
456
453
464
458
461
459
459
460
465
467
460
457
455
458
450
447
444
439
441
427
423
432
438
431
439
447
461
464
474
480
439
452
462
465
467
460
455
404
288
294
547
774
758
551
476
454
443
435
426
420
421
411
411
408
392
389
385
366
354
336
317
309
297
291
304
316
328
362
391
421
439
458
469
475
473
472
482
482
475
474
467
456
451
451
444
451
447
451
453
451
455
449
452
454
456
454
457
455
451
459
456
450
431
429
417
431
444
433
456
447
430
444
442
461
468
451
458
460
464
461
461
451
428
323
275
426
707
790
619
490
455
433
424
411
432
418
440
426
416
412
401
393
392
385
365
344
327
318
316
329
326
343
376
394
423
446
455
467
474
477
480
474
477
477
476
474
464
457
460
454
456
452
452
453
457
451
450
454
454
437
442
466
448
433
448
427
431
434
456
445
435
434
433
441
439
439
452
450
446
453
464
452
467
458
462
460
461
410
336
396
674
820
766
589
535
470
466
439
427
450
422
450
447
437
451
437
429
413
393
357
337
323
312
309
314
319
341
376
409
433
446
464
468
456
459
455
453
447
448
456
443
438
436
432
427
434
436
441
448
444
448
448
447
445
448
449
450
448
446
450
427
419
445
428
410
440
437
427
444
462
462
469
487
479
452
468
472
464
461
445
352
285
435
710
829
650
503
479
461
457
449
443
435
428
425
410
397
400
388
381
376
350
345
311
286
296
302
310
329
353
391
414
447
468
472
477
481
483
481
487
485
477
485
491
482
476
480
501
469
487
503
481
487
497
499
503
519
516
511
512
516
511
505
504
505
509
510
527
516
513
531
543
533
541
532
531
537
537
544
541
532
517
409
368
555
814
858
665
557
536
523
514
512
506
495
496
497
497
483
476
477
467
451
435
411
389
387
385
392
396
410
442
473
501
524
536
547
555
550
543
545
543
543
539
538
534
532
530
526
527
528
529
527
529
522
469
470
505
529
538
551
568
558
542
520
515
512
497
511
512
507
518
522
516
512
515
519
517
521
517
517
522
512
487
399
386
591
816
811
628
527
508
489
486
483
477
465
463
461
462
466
462
459
455
447
426
415
394
385
387
387
379
399
418
440
470
492
508
521
515
516
509
508
504
509
498
483
487
493
488
473
475
474
473
475
472
475
470
479
471
462
472
477
472
474
463
459
457
451
460
467
470
465
465
471
478
479
484
479
484
476
476
479
477
470
446
382
401
582
771
752
595
481
453
447
439
430
435
426
417
420
421
411
407
398
392
386
374
345
338
333
326
319
329
345
366
403
423
445
455
467
464
465
471
456
460
461
452
447
449
444
442
441
439
441
436
436
440
442
446
445
445
442
445
440
438
433
431
423
427
422
417
434
433
427
429
441
440
444
447
443
443
442
440
443
441
425
365
352
469
671
711
621
482
440
432
424
417
411
413
412
415
417
417
414
409
400
392
372
361
347
332
322
326
332
342
358
392
421
441
460
464
472
472
461
468
459
454
451
451
448
449
450
445
447
453
452
451
449
452
460
460
451
456
457
463
458
453
445
443
439
437
449
447
449
456
452
464
471
482
470
473
482
485
484
477
478
471
394
341
486
737
780
638
512
472
460
460
457
441
445
452
446
435
436
439
427
414
395
382
348
334
339
323
320
324
335
364
390
432
451
470
479
482
483
485
477
472
472
470
459
456
451
454
451
449
452
446
443
446
445
447
453
453
443
448
441
445
446
438
422
420
422
437
436
436
443
455
455
468
461
457
456
456
460
457
447
442
347
256
358
621
775
680
499
458
438
435
417
414
401
405
406
400
394
396
381
376
355
331
310
287
277
273
269
296
310
341
372
403
431
453
465
471
477
484
477
487
484
479
481
477
471
465
460
464
462
462
461
468
467
464
459
468
480
475
464
460
455
457
449
451
450
462
460
452
455
472
470
479
475
471
468
471
467
479
468
444
340
255
395
691
811
687
511
463
437
431
423
418
412
418
403
403
404
381
378
373
357
339
313
291
272
271
269
285
308
340
381
423
441
457
463
472
479
480
473
481
477
476
472
468
464
459
449
456
452
452
452
447
449
449
449
449
449
446
447
435
434
434
428
431
425
433
440
443
437
437
451
449
447
449
451
451
448
448
445
439
421
323
231
339
627
783
669
498
449
434
427
423
414
417
413
406
394
396
390
389
375
369
340
308
288
277
270
277
281
305
337
372
403
433
453
455
462
466
467
473
468
464
459
463
449
449
443
436
440
444
436
443
435
438
441
442
441
443
438
446
433
428
425
420
422
421
431
438
431
434
437
448
447
448
450
452
452
454
452
463
444
423
328
270
385
673
804
684
516
472
452
446
439
441
448
435
434
438
443
420
424
419
382
378
355
317
300
303
306
313
325
378
409
433
457
486
513
509
505
520
521
519
512
510
512
515
507
506
500
500
490
485
486
484
481
484
478
489
480
482
487
485
479
482
472
468
460
455
456
458
470
466
455
457
467
468
469
469
467
458
453
459
458
451
449
439
329
233
352
650
820
686
500
448
412
405
400
399
394
386
388
391
386
376
375
369
356
343
308
283
271
267
264
268
283
313
349
390
422
430
433
444
447
448
451
454
456
449
442
446
440
436
432
429
425
432
431
430
434
429
430
430
435
434
431
439
439
431
430
430
421
422
423
420
422
427
439
428
432
448
457
456
460
457
461
455
454
454
448
451
448
415
310
279
468
732
801
638
486
449
432
429
421
419
418
411
416
409
403
390
390
385
370
346
328
299
288
291
287
291
312
346
380
410
437
449
455
462
468
465
465
464
462
459
461
456
448
444
447
442
440
444
444
443
448
447
449
444
449
460
457
454
455
456
452
452
454
449
438
437
435
437
441
444
448
441
437
450
461
463
472
459
459
463
471
480
488
497
498
474
368
302
463
742
821
689
532
481
468
453
455
452
453
454
451
449
453
449
438
432
415
397
376
348
328
321
322
326
346
376
415
448
474
481
492
504
512
517
