351.0
373.0
402.0
418.0
426.0
440.0
446.0
450.0
467.0
469.0
462.0
467.0
466.0
465.0
464.0
468.0
470.0
458.0
455.0
459.0
452.0
442.0
439.0
442.0
440.0
438.0
452.0
445.0
439.0
440.0
421.0
415.0
410.0
417.0
425.0
436.0
444.0
461.0
481.0
469.0
463.0
477.0
479.0
476.0
474.0
486.0
482.0
486.0
483.0
476.0
478.0
487.0
499.0
505.0
498.0
495.0
492.0
452.0
378.0
415.0
667.0
824.0
737.0
560.0
523.0
509.0
493.0
486.0
488.0
482.0
479.0
477.0
473.0
474.0
468.0
466.0
457.0
453.0
446.0
434.0
419.0
400.0
389.0
375.0
367.0
365.0
374.0
382.0
404.0
435.0
454.0
475.0
485.0
495.0
502.0
495.0
496.0
499.0
494.0
491.0
476.0
472.0
486.0
467.0
457.0
460.0
467.0
464.0
449.0
426.0
425.0
421.0
429.0
439.0
444.0
449.0
454.0
460.0
453.0
440.0
428.0
428.0
424.0
423.0
427.0
438.0
445.0
422.0
420.0
433.0
445.0
460.0
467.0
466.0
471.0
473.0
463.0
449.0
438.0
433.0
434.0
429.0
344.0
274.0
386.0
658.0
782.0
659.0
513.0
473.0
457.0
447.0
446.0
441.0
440.0
434.0
434.0
429.0
427.0
421.0
416.0
403.0
398.0
393.0
379.0
368.0
359.0
350.0
337.0
331.0
332.0
340.0
359.0
391.0
408.0
429.0
446.0
456.0
463.0
469.0
471.0
470.0
478.0
472.0
466.0
454.0
464.0
459.0
451.0
449.0
452.0
444.0
443.0
440.0
436.0
431.0
430.0
432.0
432.0
430.0
438.0
441.0
441.0
445.0
424.0
421.0
440.0
439.0
447.0
455.0
475.0
469.0
466.0
470.0
481.0
473.0
470.0
472.0
479.0
476.0
472.0
476.0
469.0
458.0
458.0
452.0
382.0
285.0
334.0
608.0
812.0
749.0
560.0
491.0
473.0
453.0
452.0
445.0
438.0
431.0
424.0
422.0
417.0
411.0
413.0
413.0
406.0
398.0
391.0
377.0
365.0
349.0
337.0
333.0
331.0
336.0
351.0
384.0
412.0
432.0
454.0
465.0
476.0
485.0
471.0
475.0
479.0
479.0
481.0
480.0
475.0
478.0
476.0
466.0
465.0
467.0
464.0
461.0
461.0
468.0
468.0
467.0
471.0
470.0
467.0
461.0
464.0
463.0
451.0
455.0
456.0
454.0
459.0
461.0
473.0
470.0
460.0
458.0
472.0
478.0
482.0
474.0
467.0
477.0
475.0
472.0
476.0
478.0
472.0
460.0
409.0
309.0
241.0
458.0
723.0
706.0
537.0
484.0
462.0
454.0
454.0
457.0
454.0
452.0
454.0
448.0
451.0
448.0
443.0
436.0
431.0
429.0
412.0
391.0
386.0
372.0
364.0
358.0
355.0
356.0
369.0
389.0
417.0
450.0
467.0
468.0
477.0
478.0
478.0
474.0
475.0
474.0
479.0
475.0
472.0
468.0
469.0
467.0
467.0
474.0
465.0
450.0
446.0
442.0
440.0
446.0
455.0
457.0
459.0
459.0
451.0
443.0
434.0
433.0
430.0
426.0
439.0
458.0
449.0
444.0
466.0
478.0
476.0
478.0
479.0
475.0
477.0
476.0
472.0
471.0
473.0
471.0
440.0
340.0
264.0
419.0
709.0
816.0
683.0
526.0
482.0
463.0
459.0
457.0
449.0
449.0
453.0
435.0
430.0
434.0
430.0
422.0
419.0
416.0
404.0
392.0
378.0
369.0
353.0
348.0
348.0
349.0
355.0
379.0
408.0
439.0
466.0
487.0
495.0
502.0
507.0
505.0
503.0
502.0
503.0
500.0
498.0
495.0
490.0
484.0
487.0
477.0
479.0
479.0
474.0
474.0
471.0
472.0
471.0
467.0
464.0
452.0
446.0
450.0
445.0
444.0
439.0
455.0
455.0
453.0
456.0
470.0
468.0
476.0
480.0
476.0
479.0
478.0
473.0
479.0
480.0
473.0
459.0
394.0
274.0
301.0
568.0
773.0
744.0
567.0
477.0
451.0
444.0
454.0
447.0
448.0
439.0
445.0
451.0
446.0
445.0
437.0
440.0
435.0
416.0
408.0
389.0
370.0
341.0
331.0
348.0
354.0
340.0
368.0
410.0
439.0
462.0
485.0
499.0
505.0
509.0
514.0
517.0
519.0
518.0
512.0
506.0
510.0
504.0
497.0
486.0
485.0
477.0
472.0
481.0
479.0
482.0
476.0
473.0
475.0
474.0
468.0
457.0
451.0
450.0
450.0
445.0
448.0
459.0
455.0
450.0
459.0
463.0
464.0
468.0
466.0
457.0
464.0
467.0
469.0
472.0
464.0
458.0
446.0
358.0
259.0
356.0
656.0
830.0
704.0
519.0
473.0
457.0
451.0
445.0
436.0
433.0
432.0
425.0
419.0
425.0
420.0
410.0
409.0
401.0
387.0
381.0
371.0
354.0
338.0
326.0
324.0
326.0
331.0
353.0
387.0
419.0
444.0
460.0
467.0
471.0
481.0
480.0
479.0
485.0
487.0
483.0
476.0
473.0
468.0
463.0
456.0
455.0
457.0
455.0
458.0
454.0
463.0
461.0
455.0
461.0
467.0
458.0
453.0
447.0
446.0
442.0
451.0
464.0
453.0
450.0
435.0
444.0
450.0
434.0
434.0
430.0
435.0
442.0
446.0
454.0
461.0
469.0
460.0
457.0
451.0
331.0
211.0
370.0
703.0
831.0
664.0
486.0
455.0
434.0
435.0
428.0
428.0
434.0
428.0
427.0
417.0
412.0
423.0
413.0
415.0
398.0
384.0
340.0
316.0
320.0
313.0
306.0
306.0
314.0
326.0
346.0
374.0
398.0
425.0
444.0
446.0
446.0
455.0
459.0
463.0
450.0
451.0
457.0
461.0
459.0
454.0
453.0
448.0
451.0
449.0
444.0
443.0
444.0
451.0
451.0
445.0
445.0
450.0
449.0
447.0
441.0
440.0
428.0
428.0
419.0
433.0
446.0
432.0
422.0
433.0
440.0
446.0
455.0
458.0
466.0
461.0
471.0
460.0
451.0
461.0
449.0
443.0
349.0
253.0
352.0
644.0
809.0
684.0
505.0
465.0
430.0
433.0
432.0
417.0
416.0
411.0
406.0
410.0
403.0
392.0
403.0
396.0
390.0
377.0
360.0
350.0
337.0
327.0
317.0
315.0
307.0
304.0
327.0
364.0
392.0
426.0
463.0
470.0
479.0
476.0
477.0
485.0
484.0
483.0
480.0
471.0
460.0
453.0
452.0
456.0
458.0
458.0
457.0
458.0
463.0
467.0
463.0
463.0
464.0
465.0
462.0
450.0
454.0
451.0
441.0
430.0
430.0
438.0
438.0
451.0
456.0
450.0
453.0
464.0
464.0
465.0
461.0
465.0
462.0
460.0
464.0
462.0
458.0
457.0
449.0
407.0
295.0
269.0
492.0
768.0
779.0
593.0
485.0
462.0
448.0
445.0
439.0
438.0
440.0
431.0
432.0
433.0
438.0
433.0
419.0
415.0
410.0
401.0
392.0
377.0
365.0
357.0
355.0
356.0
351.0
361.0
375.0
404.0
436.0
464.0
478.0
491.0
495.0
494.0
500.0
497.0
495.0
492.0
494.0
483.0
484.0
480.0
477.0
477.0
480.0
485.0
480.0
473.0
483.0
483.0
476.0
480.0
478.0
480.0
485.0
487.0
479.0
478.0
473.0
460.0
463.0
456.0
454.0
464.0
472.0
469.0
459.0
459.0
471.0
469.0
475.0
474.0
467.0
471.0
470.0
475.0
470.0
473.0
472.0
459.0
411.0
318.0
327.0
562.0
778.0
767.0
593.0
492.0
469.0
451.0
441.0
440.0
439.0
426.0
421.0
423.0
419.0
427.0
431.0
418.0
419.0
415.0
406.0
395.0
387.0
367.0
363.0
352.0
339.0
342.0
361.0
382.0
406.0
432.0
452.0
473.0
483.0
493.0
487.0
507.0
515.0
510.0
516.0
510.0
510.0
506.0
491.0
490.0
494.0
485.0
486.0
490.0
471.0
471.0
480.0
478.0
484.0
489.0
488.0
490.0
484.0
475.0
471.0
458.0
449.0
439.0
446.0
447.0
448.0
464.0
456.0
455.0
468.0
471.0
474.0
484.0
476.0
480.0
479.0
481.0
478.0
474.0
471.0
473.0
463.0
380.0
293.0
364.0
631.0
786.0
681.0
515.0
479.0
462.0
440.0
439.0
430.0
425.0
424.0
424.0
420.0
417.0
409.0
416.0
408.0
400.0
398.0
390.0
377.0
373.0
362.0
356.0
360.0
371.0
371.0
375.0
396.0
431.0
453.0
478.0
480.0
478.0
486.0
489.0
476.0
476.0
469.0
457.0
461.0
460.0
451.0
449.0
453.0
463.0
463.0
458.0
459.0
466.0
457.0
447.0
455.0
449.0
441.0
447.0
450.0
455.0
450.0
447.0
438.0
429.0
426.0
430.0
433.0
440.0
439.0
437.0
429.0
438.0
447.0
454.0
461.0
456.0
454.0
460.0
457.0
457.0
459.0
459.0
453.0
424.0
320.0
284.0
471.0
708.0
751.0
613.0
483.0
457.0
449.0
436.0
432.0
425.0
430.0
428.0
424.0
418.0
422.0
416.0
413.0
417.0
412.0
407.0
401.0
391.0
380.0
366.0
362.0
370.0
370.0
377.0
382.0
421.0
441.0
450.0
476.0
486.0
478.0
490.0
491.0
491.0
495.0
490.0
484.0
476.0
474.0
464.0
451.0
456.0
462.0
447.0
446.0
456.0
456.0
455.0
456.0
448.0
442.0
444.0
452.0
440.0
442.0
448.0
441.0
432.0
431.0
431.0
409.0
431.0
442.0
437.0
444.0
452.0
460.0
467.0
465.0
471.0
467.0
470.0
475.0
467.0
463.0
460.0
459.0
416.0
296.0
280.0
515.0
750.0
752.0
566.0
467.0
452.0
436.0
423.0
421.0
420.0
422.0
415.0
411.0
405.0
402.0
402.0
398.0
389.0
379.0
375.0
361.0
357.0
340.0
332.0
342.0
343.0
334.0
347.0
369.0
396.0
425.0
448.0
458.0
473.0
476.0
475.0
482.0
482.0
464.0
476.0
467.0
463.0
458.0
463.0
462.0
456.0
449.0
461.0
460.0
451.0
436.0
434.0
428.0
438.0
448.0
449.0
446.0
452.0
449.0
440.0
440.0
437.0
432.0
427.0
444.0
436.0
437.0
443.0
445.0
449.0
459.0
463.0
464.0
465.0
463.0
465.0
461.0
460.0
451.0
452.0
445.0
383.0
286.0
292.0
547.0
763.0
736.0
567.0
467.0
453.0
446.0
435.0
436.0
436.0
431.0
429.0
428.0
422.0
421.0
420.0
409.0
401.0
401.0
393.0
383.0
363.0
351.0
347.0
340.0
346.0
343.0
354.0
370.0
389.0
390.0
392.0
424.0
458.0
467.0
477.0
475.0
472.0
468.0
462.0
472.0
470.0
451.0
450.0
444.0
440.0
439.0
451.0
440.0
449.0
451.0
440.0
440.0
444.0
438.0
454.0
471.0
464.0
467.0
471.0
449.0
439.0
438.0
433.0
434.0
459.0
474.0
477.0
484.0
495.0
511.0
516.0
519.0
518.0
516.0
521.0
512.0
515.0
526.0
524.0
492.0
447.0
347.0
408.0
685.0
778.0
644.0
514.0
463.0
438.0
415.0
422.0
423.0
429.0
428.0
441.0
446.0
433.0
426.0
416.0
404.0
385.0
370.0
373.0
372.0
364.0
357.0
359.0
373.0
372.0
356.0
363.0
389.0
406.0
432.0
461.0
467.0
469.0
471.0
475.0
476.0
478.0
475.0
472.0
472.0
462.0
460.0
446.0
446.0
457.0
464.0
464.0
462.0
471.0
460.0
459.0
462.0
459.0
464.0
466.0
446.0
450.0
452.0
443.0
430.0
429.0
429.0
428.0
439.0
432.0
433.0
457.0
454.0
455.0
459.0
458.0
444.0
448.0
444.0
448.0
443.0
435.0
424.0
352.0
288.0
390.0
626.0
712.0
642.0
517.0
459.0
457.0
448.0
451.0
446.0
446.0
457.0
444.0
438.0
452.0
446.0
458.0
443.0
437.0
420.0
398.0
378.0
364.0
353.0
345.0
347.0
341.0
373.0
446.0
463.0
485.0
497.0
506.0
499.0
504.0
486.0
500.0
518.0
524.0
519.0
510.0
484.0
491.0
493.0
502.0
523.0
551.0
522.0
502.0
513.0
499.0
491.0
483.0
462.0
429.0
417.0
415.0
391.0
409.0
415.0
423.0
424.0
437.0
462.0
454.0
453.0
454.0
459.0
461.0
476.0
478.0
460.0
448.0
442.0
430.0
420.0
425.0
423.0
384.0
276.0
296.0
553.0
738.0
715.0
566.0
517.0
531.0
464.0
448.0
441.0
414.0
390.0
377.0
363.0
344.0
354.0
412.0
428.0
439.0
433.0
411.0
393.0
385.0
379.0
373.0
369.0
360.0
365.0
376.0
399.0
420.0
432.0
456.0
468.0
475.0
467.0
457.0
455.0
470.0
489.0
492.0
481.0
498.0
508.0
508.0
508.0
507.0
499.0
502.0
500.0
502.0
497.0
509.0
493.0
492.0
485.0
488.0
480.0
481.0
475.0
474.0
481.0
479.0
483.0
489.0
486.0
494.0
507.0
506.0
503.0
499.0
505.0
507.0
510.0
525.0
523.0
505.0
495.0
452.0
347.0
331.0
566.0
798.0
788.0
602.0
510.0
493.0
484.0
476.0
473.0
467.0
468.0
462.0
458.0
439.0
423.0
425.0
413.0
389.0
381.0
376.0
364.0
359.0
350.0
365.0
369.0
364.0
372.0
373.0
392.0
430.0
467.0
481.0
479.0
463.0
466.0
491.0
506.0
502.0
496.0
495.0
491.0
490.0
494.0
496.0
520.0
515.0
489.0
487.0
490.0
482.0
483.0
481.0
476.0
461.0
455.0
454.0
452.0
445.0
437.0
443.0
450.0
449.0
457.0
461.0
462.0
461.0
476.0
479.0
485.0
489.0
486.0
487.0
492.0
482.0
475.0
472.0
463.0
417.0
293.0
259.0
465.0
747.0
800.0
628.0
525.0
504.0
499.0
463.0
455.0
446.0
436.0
431.0
428.0
427.0
423.0
418.0
410.0
395.0
390.0
381.0
369.0
353.0
337.0
330.0
326.0
318.0
329.0
331.0
350.0
399.0
436.0
448.0
465.0
466.0
468.0
477.0
487.0
490.0
483.0
493.0
488.0
478.0
473.0
461.0
451.0
446.0
443.0
446.0
455.0
464.0
466.0
476.0
465.0
446.0
454.0
460.0
451.0
442.0
447.0
434.0
437.0
436.0
431.0
434.0
436.0
429.0
442.0
460.0
475.0
477.0
484.0
487.0
478.0
475.0
470.0
470.0
469.0
464.0
456.0
398.0
294.0
316.0
579.0
755.0
722.0
569.0
484.0
472.0
451.0
451.0
445.0
440.0
445.0
443.0
447.0
442.0
441.0
431.0
431.0
436.0
424.0
413.0
397.0
378.0
369.0
352.0
344.0
343.0
348.0
360.0
392.0
421.0
450.0
464.0
477.0
471.0
474.0
492.0
490.0
489.0
499.0
501.0
498.0
493.0
487.0
478.0
464.0
477.0
485.0
475.0
471.0
472.0
464.0
465.0
470.0
470.0
476.0
475.0
471.0
463.0
457.0
449.0
444.0
428.0
429.0
436.0
437.0
440.0
455.0
472.0
463.0
463.0
461.0
452.0
460.0
461.0
463.0
465.0
465.0
467.0
451.0
363.0
257.0
329.0
625.0
796.0
711.0
540.0
478.0
463.0
452.0
452.0
450.0
445.0
443.0
435.0
434.0
426.0
428.0
420.0
415.0
412.0
399.0
384.0
369.0
354.0
337.0
328.0
322.0
315.0
324.0
352.0
386.0
421.0
446.0
464.0
475.0
486.0
487.0
478.0
477.0
475.0
474.0
476.0
470.0
469.0
480.0
476.0
471.0
465.0
456.0
454.0
452.0
448.0
458.0
455.0
467.0
483.0
462.0
474.0
480.0
478.0
478.0
468.0
455.0
452.0
443.0
433.0
438.0
450.0
462.0
459.0
452.0
464.0
474.0
463.0
472.0
472.0
473.0
473.0
480.0
488.0
479.0
483.0
475.0
443.0
335.0
274.0
441.0
722.0
793.0
658.0
517.0
477.0
472.0
465.0
453.0
451.0
454.0
448.0
453.0
451.0
451.0
449.0
443.0
440.0
429.0
423.0
409.0
387.0
372.0
360.0
345.0
331.0
327.0
350.0
371.0
410.0
451.0
470.0
485.0
501.0
508.0
510.0
518.0
522.0
515.0
511.0
521.0
512.0
504.0
503.0
508.0
512.0
508.0
500.0
500.0
489.0
493.0
497.0
486.0
489.0
494.0
498.0
496.0
483.0
479.0
484.0
483.0
484.0
480.0
463.0
460.0
459.0
458.0
472.0
477.0
464.0
463.0
480.0
475.0
468.0
477.0
478.0
476.0
475.0
477.0
476.0
472.0
470.0
468.0
451.0
368.0
254.0
289.0
621.0
779.0
611.0
508.0
491.0
467.0
468.0
460.0
448.0
446.0
447.0
443.0
440.0
435.0
435.0
428.0
422.0
420.0
411.0
399.0
382.0
368.0
363.0
348.0
348.0
352.0
354.0
365.0
402.0
427.0
433.0
451.0
467.0
463.0
465.0
473.0
458.0
453.0
450.0
448.0
461.0
456.0
462.0
467.0
453.0
433.0
429.0
422.0
418.0
416.0
424.0
441.0
448.0
443.0
430.0
437.0
445.0
461.0
460.0
452.0
452.0
446.0
445.0
443.0
444.0
433.0
438.0
431.0
432.0
439.0
440.0
447.0
463.0
483.0
495.0
502.0
499.0
494.0
493.0
496.0
491.0
489.0
494.0
485.0
473.0
421.0
304.0
296.0
567.0
802.0
800.0
615.0
518.0
492.0
478.0
480.0
470.0
477.0
473.0
472.0
474.0
469.0
467.0
468.0
462.0
468.0
452.0
433.0
416.0
401.0
383.0
358.0
355.0
352.0
350.0
365.0
408.0
448.0
470.0
480.0
503.0
513.0
511.0
510.0
502.0
495.0
494.0
487.0
481.0
474.0
468.0
454.0
452.0
458.0
466.0
462.0
460.0
454.0
451.0
448.0
452.0
457.0
463.0
466.0
465.0
457.0
462.0
468.0
475.0
476.0
468.0
453.0
461.0
451.0
444.0
448.0
445.0
443.0
446.0
437.0
440.0
459.0
465.0
467.0
468.0
473.0
477.0
479.0
481.0
485.0
484.0
474.0
470.0
440.0
336.0
202.0
308.0
673.0
743.0
551.0
503.0
470.0
452.0
453.0
448.0
438.0
442.0
437.0
435.0
437.0
437.0
429.0
426.0
417.0
416.0
412.0
402.0
389.0
383.0
366.0
355.0
354.0
354.0
360.0
377.0
406.0
426.0
451.0
475.0
480.0
473.0
496.0
490.0
487.0
486.0
477.0
451.0
431.0
423.0
435.0
441.0
455.0
459.0
446.0
449.0
449.0
449.0
448.0
446.0
456.0
453.0
440.0
429.0
430.0
447.0
436.0
422.0
413.0
433.0
433.0
432.0
441.0
426.0
419.0
413.0
399.0
417.0
419.0
421.0
438.0
434.0
440.0
446.0
435.0
440.0
438.0
433.0
422.0
426.0
441.0
456.0
461.0
453.0
452.0
434.0
375.0
283.0
247.0
545.0
686.0
589.0
517.0
474.0
465.0
451.0
443.0
446.0
441.0
444.0
441.0
425.0
417.0
412.0
402.0
393.0
398.0
393.0
376.0
368.0
359.0
358.0
339.0
347.0
339.0
333.0
344.0
349.0
376.0
390.0
400.0
416.0
430.0
425.0
429.0
421.0
398.0
404.0
415.0
428.0
413.0
415.0
430.0
470.0
457.0
451.0
457.0
443.0
437.0
404.0
349.0
378.0
410.0
405.0
424.0
449.0
447.0
432.0
433.0
441.0
446.0
444.0
448.0
438.0
416.0
396.0
383.0
389.0
384.0
391.0
397.0
408.0
423.0
427.0
423.0
430.0
423.0
438.0
439.0
449.0
437.0
434.0
443.0
438.0
425.0
359.0
274.0
308.0
552.0
679.0
633.0
504.0
445.0
431.0
413.0
423.0
430.0
426.0
422.0
424.0
426.0
419.0
424.0
428.0
433.0
426.0
426.0
424.0
416.0
395.0
378.0
364.0
350.0
340.0
336.0
342.0
363.0
397.0
418.0
447.0
463.0
477.0
486.0
489.0
481.0
471.0
475.0
472.0
464.0
460.0
455.0
451.0
452.0
448.0
445.0
446.0
452.0
461.0
463.0
460.0
461.0
467.0
474.0
474.0
473.0
466.0
473.0
477.0
478.0
475.0
471.0
460.0
461.0
466.0
460.0
455.0
442.0
447.0
457.0
460.0
466.0
480.0
491.0
495.0
497.0
490.0
500.0
496.0
489.0
500.0
501.0
495.0
489.0
477.0
384.0
311.0
433.0
688.0
797.0
676.0
539.0
502.0
484.0
471.0
466.0
470.0
465.0
453.0
458.0
453.0
441.0
442.0
439.0
441.0
432.0
412.0
387.0
373.0
360.0
351.0
341.0
357.0
361.0
354.0
373.0
385.0
419.0
450.0
477.0
487.0
478.0
471.0
464.0
474.0
490.0
491.0
502.0
497.0
484.0
480.0
476.0
464.0
470.0
481.0
469.0
470.0
479.0
479.0
472.0
475.0
486.0
487.0
496.0
496.0
497.0
492.0
492.0
499.0
500.0
504.0
497.0
501.0
504.0
500.0
508.0
511.0
519.0
511.0
505.0
516.0
519.0
521.0
528.0
532.0
528.0
525.0
524.0
519.0
514.0
512.0
509.0
450.0
318.0
304.0
572.0
801.0
769.0
595.0
515.0
484.0
462.0
449.0
441.0
438.0
422.0
422.0
431.0
433.0
435.0
435.0
431.0
412.0
404.0
396.0
390.0
362.0
363.0
351.0
354.0
372.0
370.0
359.0
387.0
421.0
438.0
451.0
479.0
487.0
492.0
492.0
490.0
489.0
469.0
464.0
473.0
465.0
471.0
451.0
459.0
462.0
463.0
465.0
475.0
488.0
483.0
497.0
488.0
481.0
486.0
499.0
503.0
480.0
480.0
497.0
499.0
492.0
488.0
486.0
481.0
479.0
478.0
483.0
492.0
478.0
471.0
481.0
489.0
488.0
484.0
487.0
482.0
478.0
487.0
483.0
479.0
484.0
470.0
422.0
280.0
259.0
534.0
775.0
756.0
580.0
471.0
441.0
440.0
438.0
426.0
432.0
440.0
428.0
413.0
378.0
362.0
363.0
373.0
383.0
389.0
384.0
370.0
359.0
357.0
342.0
335.0
335.0
340.0
354.0
368.0
404.0
430.0
453.0
469.0
481.0
497.0
507.0
520.0
515.0
507.0
512.0
501.0
481.0
469.0
465.0
444.0
412.0
418.0
427.0
415.0
419.0
446.0
452.0
467.0
493.0
479.0
462.0
462.0
454.0
441.0
439.0
432.0
426.0
415.0
412.0
419.0
424.0
433.0
451.0
450.0
450.0
458.0
478.0
478.0
469.0
471.0
470.0
468.0
471.0
462.0
464.0
474.0
457.0
433.0
328.0
201.0
298.0
647.0
731.0
545.0
488.0
455.0
444.0
442.0
435.0
435.0
434.0
435.0
417.0
399.0
400.0
405.0
398.0
382.0
375.0
375.0
370.0
363.0
354.0
351.0
347.0
353.0
357.0
349.0
370.0
403.0
438.0
467.0
486.0
489.0
476.0
473.0
494.0
486.0
476.0
469.0
471.0
473.0
471.0
471.0
471.0
464.0
455.0
451.0
444.0
444.0
448.0
450.0
452.0
450.0
459.0
448.0
448.0
457.0
458.0
454.0
462.0
454.0
441.0
434.0
423.0
427.0
434.0
436.0
455.0
446.0
443.0
456.0
466.0
472.0
511.0
538.0
503.0
475.0
441.0
396.0
367.0
369.0
358.0
321.0
234.0
178.0
436.0
759.0
735.0
547.0
498.0
466.0
448.0
455.0
468.0
451.0
420.0
396.0
384.0
378.0
377.0
404.0
440.0
440.0
433.0
419.0
401.0
390.0
377.0
377.0
354.0
353.0
374.0
382.0
377.0
400.0
415.0
428.0
433.0
438.0
434.0
427.0
423.0
423.0
427.0
438.0
444.0
446.0
432.0
428.0
423.0
370.0
359.0
362.0
373.0
376.0
381.0
391.0
408.0
421.0
425.0
434.0
441.0
447.0
464.0
456.0
412.0
403.0
421.0
394.0
371.0
377.0
387.0
411.0
417.0
420.0
426.0
433.0
436.0
452.0
456.0
476.0
472.0
440.0
452.0
445.0
384.0
377.0
331.0
288.0
379.0
593.0
633.0
568.0
491.0
461.0
466.0
467.0
476.0
475.0
460.0
454.0
432.0
440.0
424.0
425.0
427.0
426.0
419.0
414.0
401.0
395.0
398.0
388.0
391.0
401.0
408.0
411.0
390.0
400.0
412.0
423.0
443.0
456.0
461.0
465.0
477.0
477.0
462.0
462.0
449.0
443.0
443.0
435.0
434.0
414.0
414.0
413.0
415.0
414.0
425.0
428.0
435.0
415.0
418.0
426.0
422.0
423.0
431.0
431.0
407.0
407.0
399.0
411.0
421.0
425.0
437.0
435.0
447.0
453.0
475.0
476.0
479.0
473.0
484.0
495.0
506.0
494.0
498.0
496.0
478.0
371.0
318.0
537.0
741.0
735.0
619.0
537.0
510.0
503.0
506.0
498.0
489.0
491.0
488.0
480.0
475.0
466.0
458.0
456.0
448.0
427.0
416.0
412.0
402.0
371.0
377.0
377.0
369.0
380.0
394.0
408.0
427.0
437.0
463.0
483.0
474.0
488.0
488.0
479.0
494.0
506.0
483.0
485.0
488.0
477.0
465.0
451.0
444.0
452.0
459.0
456.0
453.0
459.0
465.0
466.0
467.0
483.0
487.0
480.0
476.0
463.0
455.0
458.0
459.0
464.0
468.0
469.0
461.0
483.0
477.0
479.0
486.0
490.0
481.0
479.0
481.0
480.0
480.0
475.0
436.0
297.0
267.0
497.0
784.0
795.0
595.0
505.0
477.0
459.0
455.0
440.0
434.0
437.0
436.0
433.0
419.0
433.0
436.0
412.0
405.0
403.0
393.0
385.0
375.0
363.0
344.0
336.0
332.0
331.0
349.0
372.0
395.0
422.0
442.0
457.0
471.0
470.0
472.0
480.0
468.0
462.0
463.0
459.0
454.0
456.0
454.0
454.0
453.0
460.0
450.0
447.0
454.0
459.0
476.0
497.0
470.0
448.0
444.0
450.0
422.0
385.0
364.0
370.0
370.0
404.0
408.0
415.0
434.0
453.0
450.0
458.0
458.0
460.0
472.0
462.0
455.0
474.0
455.0
418.0
331.0
275.0
424.0
677.0
733.0
638.0
517.0
463.0
445.0
421.0
409.0
381.0
360.0
355.0
358.0
395.0
404.0
419.0
431.0
418.0
400.0
387.0
372.0
372.0
356.0
346.0
355.0
385.0
383.0
374.0
400.0
412.0
418.0
427.0
431.0
448.0
451.0
452.0
460.0
471.0
465.0
473.0
468.0
455.0
456.0
450.0
445.0
442.0
444.0
456.0
453.0
462.0
456.0
391.0
351.0
361.0
355.0
346.0
371.0
388.0
406.0
416.0
436.0
449.0
452.0
443.0
435.0
443.0
444.0
452.0
460.0
463.0
478.0
494.0
455.0
459.0
458.0
428.0
343.0
301.0
424.0
624.0
674.0
587.0
484.0
467.0
465.0
471.0
463.0
459.0
471.0
476.0
480.0
455.0
415.0
431.0
414.0
403.0
403.0
393.0
386.0
393.0
383.0
371.0
376.0
366.0
371.0
393.0
418.0
440.0
448.0
466.0
466.0
485.0
492.0
496.0
471.0
440.0
465.0
458.0
431.0
413.0
439.0
434.0
435.0
444.0
443.0
459.0
463.0
457.0
465.0
454.0
445.0
450.0
443.0
423.0
443.0
430.0
428.0
461.0
417.0
400.0
417.0
409.0
391.0
404.0
415.0
431.0
442.0
445.0
464.0
460.0
453.0
449.0
419.0
364.0
337.0
477.0
625.0
623.0
552.0
472.0
461.0
460.0
445.0
462.0
459.0
457.0
415.0
425.0
411.0
410.0
424.0
448.0
465.0
438.0
432.0
407.0
370.0
361.0
365.0
383.0
400.0
387.0
396.0
427.0
443.0
471.0
458.0
446.0
452.0
467.0
465.0
469.0
454.0
417.0
426.0
408.0
376.0
400.0
423.0
412.0
445.0
458.0
419.0
407.0
394.0
418.0
438.0
437.0
452.0
436.0
405.0
408.0
402.0
421.0
432.0
429.0
421.0
441.0
459.0
449.0
449.0
444.0
433.0
434.0
437.0
436.0
434.0
384.0
327.0
390.0
610.0
667.0
579.0
495.0
476.0
463.0
459.0
454.0
451.0
458.0
455.0
447.0
448.0
462.0
450.0
450.0
452.0
440.0
416.0
380.0
383.0
374.0
361.0
342.0
350.0
358.0
365.0
393.0
439.0
464.0
486.0
506.0
519.0
534.0
564.0
537.0
499.0
482.0
477.0
483.0
462.0
432.0
438.0
459.0
491.0
487.0
466.0
453.0
468.0
470.0
454.0
444.0
448.0
443.0
455.0
478.0
475.0
495.0
501.0
498.0
484.0
472.0
476.0
484.0
490.0
452.0
434.0
412.0
352.0
344.0
515.0
658.0
642.0
554.0
487.0
475.0
472.0
468.0
457.0
466.0
466.0
449.0
456.0
462.0
439.0
432.0
441.0
430.0
428.0
446.0
405.0
390.0
390.0
356.0
356.0
361.0
354.0
367.0
381.0
403.0
421.0
436.0
453.0
443.0
458.0
469.0
461.0
456.0
459.0
455.0
461.0
437.0
427.0
450.0
457.0
460.0
468.0
454.0
469.0
475.0
451.0
455.0
471.0
480.0
472.0
481.0
492.0
503.0
512.0
516.0
514.0
516.0
509.0
511.0
499.0
497.0
467.0
366.0
336.0
503.0
710.0
741.0
593.0
483.0
474.0
465.0
445.0
455.0
459.0
458.0
453.0
460.0
448.0
453.0
445.0
444.0
437.0
440.0
434.0
415.0
407.0
388.0
375.0
375.0
381.0
372.0
380.0
413.0
434.0
444.0
463.0
485.0
489.0
478.0
475.0
485.0
488.0
486.0
492.0
462.0
442.0
438.0
423.0
411.0
424.0
425.0
409.0
424.0
398.0
395.0
427.0
422.0
433.0
441.0
455.0
459.0
464.0
483.0
474.0
471.0
470.0
459.0
451.0
451.0
446.0
377.0
288.0
344.0
632.0
764.0
671.0
566.0
527.0
504.0
494.0
492.0
496.0
499.0
505.0
496.0
494.0
495.0
490.0
486.0
472.0
462.0
462.0
444.0
417.0
405.0
389.0
380.0
376.0
373.0
386.0
413.0
431.0
451.0
471.0
487.0
493.0
499.0
488.0
493.0
492.0
485.0
471.0
467.0
468.0
466.0
465.0
464.0
465.0
453.0
445.0
445.0
438.0
428.0
435.0
442.0
440.0
445.0
473.0
484.0
477.0
480.0
489.0
484.0
483.0
493.0
491.0
490.0
479.0
441.0
321.0
292.0
518.0
775.0
774.0
623.0
529.0
498.0
482.0
479.0
474.0
471.0
465.0
464.0
457.0
459.0
452.0
439.0
439.0
438.0
420.0
403.0
393.0
381.0
365.0
355.0
351.0
348.0
351.0
369.0
396.0
423.0
447.0
456.0
466.0
471.0
471.0
472.0
472.0
466.0
462.0
467.0
462.0
463.0
460.0
459.0
454.0
444.0
447.0
441.0
435.0
430.0
422.0
409.0
422.0
428.0
421.0
424.0
449.0
464.0
453.0
456.0
466.0
463.0
457.0
448.0
451.0
459.0
443.0
404.0
282.0
279.0
519.0
768.0
763.0
572.0
472.0
453.0
428.0
422.0
422.0
423.0
417.0
415.0
409.0
401.0
401.0
400.0
394.0
397.0
391.0
377.0
367.0
342.0
330.0
329.0
321.0
317.0
337.0
354.0
380.0
415.0
435.0
444.0
452.0
460.0
467.0
465.0
458.0
466.0
463.0
455.0
457.0
453.0
446.0
448.0
443.0
440.0
442.0
443.0
451.0
455.0
452.0
453.0
444.0
447.0
453.0
448.0
448.0
451.0
459.0
454.0
449.0
439.0
438.0
443.0
447.0
457.0
467.0
473.0
481.0
484.0
482.0
484.0
479.0
475.0
474.0
472.0
443.0
328.0
280.0
453.0
718.0
791.0
621.0
502.0
469.0
455.0
450.0
445.0
443.0
442.0
434.0
420.0
424.0
411.0
412.0
408.0
405.0
400.0
392.0
371.0
350.0
337.0
334.0
333.0
336.0
337.0
352.0
383.0
414.0
440.0
464.0
477.0
474.0
475.0
474.0
477.0
475.0
476.0
482.0
482.0
477.0
468.0
460.0
457.0
462.0
464.0
466.0
458.0
459.0
461.0
461.0
457.0
467.0
466.0
464.0
470.0
468.0
459.0
463.0
455.0
445.0
441.0
441.0
440.0
429.0
432.0
437.0
438.0
440.0
464.0
473.0
474.0
483.0
485.0
486.0
486.0
491.0
485.0
480.0
459.0
349.0
296.0
488.0
748.0
795.0
640.0
519.0
487.0
472.0
460.0
460.0
464.0
458.0
453.0
449.0
440.0
434.0
438.0
433.0
433.0
420.0
403.0
389.0
371.0
367.0
353.0
340.0
333.0
337.0
353.0
387.0
411.0
432.0
452.0
464.0
468.0
467.0
474.0
477.0
474.0
464.0
467.0
474.0
474.0
455.0
457.0
463.0
464.0
456.0
461.0
457.0
460.0
464.0
465.0
467.0
455.0
454.0
451.0
440.0
437.0
441.0
433.0
427.0
427.0
441.0
444.0
439.0
447.0
455.0
460.0
468.0
468.0
463.0
469.0
465.0
465.0
467.0
463.0
436.0
331.0
259.0
403.0
692.0
796.0
646.0
505.0
469.0
451.0
438.0
430.0
429.0
432.0
431.0
425.0
420.0
420.0
425.0
421.0
413.0
415.0
408.0
388.0
368.0
357.0
347.0
338.0
339.0
333.0
356.0
378.0
409.0
445.0
467.0
472.0
483.0
491.0
500.0
505.0
500.0
492.0
483.0
491.0
483.0
482.0
501.0
508.0
495.0
485.0
487.0
490.0
508.0
499.0
515.0
507.0
502.0
508.0
505.0
497.0
493.0
495.0
495.0
493.0
488.0
490.0
506.0
501.0
500.0
514.0
498.0
485.0
491.0
499.0
504.0
515.0
517.0
515.0
508.0
495.0
425.0
280.0
312.0
610.0
815.0
756.0
576.0
501.0
480.0
450.0
438.0
443.0
439.0
430.0
389.0
380.0
404.0
398.0
404.0
404.0
387.0
375.0
368.0
367.0
352.0
334.0
309.0
299.0
295.0
319.0
343.0
348.0
393.0
427.0
432.0
446.0
433.0
424.0
442.0
459.0
443.0
436.0
439.0
435.0
422.0
427.0
428.0
428.0
421.0
428.0
442.0
439.0
432.0
416.0
409.0
412.0
406.0
411.0
407.0
404.0
404.0
404.0
393.0
391.0
392.0
402.0
415.0
411.0
415.0
430.0
427.0
436.0
432.0
426.0
441.0
443.0
442.0
454.0
450.0
450.0
388.0
288.0
346.0
632.0
777.0
687.0
516.0
467.0
435.0
433.0
422.0
429.0
432.0
426.0
430.0
435.0
427.0
419.0
426.0
426.0
404.0
395.0
398.0
384.0
363.0
351.0
359.0
358.0
354.0
366.0
384.0
415.0
448.0
469.0
489.0
496.0
513.0
516.0
519.0
513.0
499.0
509.0
513.0
500.0
485.0
486.0
476.0
465.0
454.0
441.0
431.0
433.0
444.0
430.0
441.0
460.0
464.0
465.0
476.0
460.0
461.0
458.0
451.0
459.0
444.0
444.0
445.0
439.0
428.0
441.0
445.0
454.0
447.0
413.0
399.0
413.0
428.0
422.0
430.0
418.0
295.0
222.0
398.0
675.0
755.0
607.0
465.0
428.0
409.0
396.0
377.0
384.0
382.0
373.0
386.0
395.0
375.0
379.0
385.0
381.0
380.0
372.0
352.0
332.0
316.0
296.0
287.0
272.0
283.0
316.0
355.0
360.0
388.0
424.0
434.0
447.0
448.0
447.0
437.0
448.0
447.0
429.0
434.0
423.0
415.0
415.0
409.0
410.0
424.0
419.0
411.0
415.0
415.0
420.0
420.0
425.0
423.0
416.0
418.0
418.0
396.0
398.0
397.0
407.0
409.0
406.0
413.0
416.0
409.0
412.0
412.0
417.0
423.0
412.0
404.0
408.0
399.0
403.0
403.0
390.0
349.0
204.0
184.0
438.0
704.0
712.0
511.0
417.0
391.0
366.0
364.0
356.0
353.0
349.0
350.0
342.0
337.0
330.0
329.0
329.0
326.0
305.0
292.0
275.0
253.0
249.0
244.0
235.0
236.0
245.0
263.0
299.0
329.0
355.0
380.0
393.0
399.0
407.0
413.0
410.0
411.0
413.0
413.0
404.0
391.0
396.0
393.0
391.0
388.0
391.0
387.0
387.0
384.0
391.0
397.0
388.0
400.0
400.0
399.0
404.0
400.0
394.0
387.0
389.0
384.0
386.0
395.0
402.0
409.0
403.0
405.0
424.0
433.0
429.0
432.0
434.0
441.0
436.0
434.0
435.0
432.0
424.0
358.0
230.0
238.0
524.0
772.0
731.0
542.0
459.0
432.0
421.0
415.0
415.0
403.0
394.0
394.0
386.0
390.0
384.0
386.0
380.0
365.0
362.0
356.0
338.0
321.0
316.0
305.0
291.0
289.0
294.0
315.0
339.0
369.0
390.0
414.0
429.0
432.0
433.0
450.0
446.0
439.0
439.0
439.0
436.0
431.0
421.0
417.0
426.0
412.0
406.0
413.0
421.0
417.0
418.0
424.0
414.0
412.0
414.0
411.0
412.0
410.0
418.0
412.0
420.0
420.0
422.0
408.0
359.0
364.0
348.0
346.0
361.0
373.0
360.0
381.0
388.0
385.0
413.0
410.0
410.0
414.0
426.0
438.0
364.0
226.0
224.0
484.0
668.0
632.0
481.0
414.0
388.0
396.0
395.0
386.0
379.0
394.0
390.0
389.0
394.0
384.0
402.0
399.0
412.0
397.0
365.0
363.0
337.0
328.0
331.0
330.0
316.0
302.0
318.0
352.0
373.0
387.0
420.0
438.0
453.0
447.0
460.0
439.0
423.0
418.0
403.0
396.0
392.0
389.0
384.0
396.0
390.0
390.0
396.0
411.0
424.0
426.0
434.0
410.0
417.0
434.0
430.0
429.0
408.0
410.0
407.0
408.0
403.0
400.0
392.0
401.0
413.0
411.0
404.0
417.0
424.0
429.0
438.0
455.0
449.0
442.0
433.0
427.0
422.0
416.0
394.0
315.0
264.0
376.0
602.0
649.0
587.0
471.0
447.0
446.0
430.0
431.0
443.0
433.0
435.0
441.0
434.0
444.0
451.0
455.0
465.0
461.0
452.0
444.0
443.0
416.0
402.0
401.0
399.0
376.0
376.0
393.0
408.0
438.0
466.0
483.0
497.0
506.0
512.0
512.0
523.0
511.0
512.0
508.0
508.0
502.0
501.0
504.0
497.0
492.0
492.0
495.0
498.0
499.0
488.0
495.0
495.0
489.0
487.0
479.0
477.0
478.0
479.0
475.0
472.0
483.0
488.0
485.0
498.0
513.0
507.0
517.0
521.0
520.0
520.0
526.0
529.0
513.0
513.0
503.0
455.0
345.0
351.0
581.0
805.0
805.0
622.0
529.0
514.0
498.0
496.0
500.0
489.0
484.0
478.0
474.0
467.0
469.0
459.0
458.0
452.0
446.0
440.0
427.0
428.0
410.0
391.0
398.0
398.0
400.0
423.0
446.0
475.0
495.0
507.0
513.0
523.0
526.0
528.0
518.0
526.0
524.0
510.0
514.0
511.0
505.0
504.0
507.0
504.0
496.0
496.0
511.0
504.0
506.0
505.0
513.0
507.0
500.0
507.0
496.0
487.0
483.0
477.0
474.0
471.0
469.0
477.0
489.0
477.0
483.0
508.0
504.0
499.0
502.0
497.0
491.0
480.0
483.0
487.0
497.0
489.0
451.0
342.0
321.0
520.0
778.0
813.0
628.0
528.0
500.0
471.0
473.0
483.0
473.0
471.0
473.0
455.0
457.0
459.0
451.0
441.0
439.0
437.0
422.0
411.0
403.0
391.0
382.0
381.0
380.0
385.0
389.0
414.0
444.0
464.0
485.0
496.0
502.0
507.0
506.0
508.0
503.0
505.0
501.0
500.0
501.0
503.0
496.0
482.0
487.0
486.0
483.0
499.0
495.0
497.0
498.0
504.0
507.0
501.0
489.0
482.0
478.0
475.0
463.0
462.0
461.0
472.0
483.0
487.0
488.0
494.0
501.0
504.0
514.0
521.0
514.0
520.0
525.0
517.0
518.0
509.0
475.0
370.0
332.0
542.0
797.0
826.0
650.0
542.0
512.0
498.0
501.0
486.0
475.0
470.0
464.0
459.0
457.0
464.0
458.0
452.0
445.0
439.0
430.0
421.0
405.0
384.0
382.0
375.0
370.0
367.0
380.0
399.0
428.0
459.0
487.0
517.0
526.0
514.0
523.0
517.0
507.0
488.0
487.0
483.0
489.0
485.0
481.0
487.0
491.0
499.0
496.0
504.0
509.0
504.0
498.0
499.0
503.0
496.0
490.0
486.0
498.0
466.0
448.0
449.0
441.0
478.0
485.0
467.0
473.0
465.0
490.0
480.0
488.0
492.0
479.0
460.0
465.0
478.0
455.0
467.0
411.0
245.0
247.0
479.0
700.0
753.0
594.0
502.0
446.0
442.0
446.0
423.0
433.0
406.0
375.0
400.0
401.0
378.0
389.0
373.0
367.0
400.0
376.0
404.0
351.0
344.0
344.0
315.0
300.0
320.0
325.0
341.0
387.0
414.0
436.0
461.0
434.0
481.0
469.0
454.0
452.0
431.0
421.0
451.0
437.0
405.0
428.0
416.0
412.0
421.0
417.0
438.0
412.0
415.0
416.0
422.0
413.0
403.0
404.0
404.0
378.0
385.0
382.0
407.0
404.0
398.0
422.0
427.0
419.0
431.0
436.0
438.0
464.0
450.0
443.0
450.0
434.0
425.0
372.0
271.0
284.0
532.0
719.0
666.0
509.0
446.0
440.0
437.0
427.0
422.0
420.0
414.0
416.0
408.0
405.0
397.0
384.0
392.0
375.0
374.0
351.0
342.0
330.0
334.0
310.0
305.0
308.0
320.0
344.0
379.0
408.0
427.0
444.0
454.0
458.0
468.0
463.0
456.0
449.0
449.0
443.0
438.0
439.0
433.0
426.0
421.0
426.0
425.0
426.0
416.0
421.0
427.0
426.0
419.0
422.0
400.0
379.0
375.0
383.0
367.0
355.0
356.0
368.0
372.0
376.0
393.0
378.0
402.0
403.0
391.0
404.0
402.0
381.0
378.0
380.0
374.0
327.0
209.0
184.0
403.0
624.0
661.0
482.0
369.0
353.0
347.0
355.0
322.0
320.0
334.0
337.0
332.0
320.0
321.0
315.0
299.0
287.0
276.0
258.0
262.0
241.0
213.0
203.0
207.0
203.0
220.0
236.0
273.0
290.0
299.0
320.0
339.0
337.0
344.0
360.0
360.0
359.0
361.0
359.0
357.0
341.0
335.0
325.0
318.0
328.0
334.0
328.0
331.0
332.0
321.0
321.0
290.0
242.0
348.0
301.0
326.0
354.0
365.0
348.0
341.0
345.0
350.0
364.0
392.0
420.0
428.0
428.0
427.0
425.0
438.0
425.0
424.0
429.0
417.0
399.0
317.0
256.0
365.0
624.0
720.0
605.0
479.0
454.0
448.0
449.0
448.0
441.0
433.0
420.0
416.0
419.0
415.0
417.0
396.0
368.0
354.0
338.0
324.0
329.0
343.0
344.0
338.0
335.0
331.0
335.0
363.0
390.0
401.0
422.0
429.0
436.0
430.0
439.0
445.0
443.0
444.0
442.0
432.0
430.0
436.0
433.0
429.0
428.0
424.0
422.0
423.0
428.0
432.0
432.0
439.0
439.0
431.0
422.0
411.0
412.0
406.0
401.0
403.0
424.0
442.0
444.0
447.0
463.0
470.0
468.0
473.0
473.0
462.0
466.0
468.0
471.0
477.0
475.0
442.0
334.0
331.0
546.0
780.0
789.0
628.0
504.0
483.0
470.0
471.0
467.0
472.0
472.0
471.0
465.0
466.0
466.0
462.0
455.0
465.0
459.0
455.0
436.0
428.0
424.0
416.0
421.0
412.0
422.0
446.0
466.0
505.0
538.0
553.0
545.0
562.0
565.0
572.0
571.0
565.0
550.0
541.0
541.0
527.0
526.0
525.0
513.0
513.0
504.0
509.0
505.0
497.0
502.0
507.0
500.0
499.0
500.0
483.0
471.0
475.0
474.0
470.0
460.0
477.0
476.0
462.0
478.0
503.0
497.0
500.0
498.0
499.0
508.0
513.0
511.0
510.0
500.0
486.0
471.0
371.0
305.0
458.0
725.0
818.0
673.0
527.0
504.0
478.0
471.0
471.0
455.0
461.0
462.0
441.0
440.0
441.0
435.0
429.0
420.0
410.0
396.0
388.0
369.0
354.0
344.0
344.0
349.0
355.0
364.0
390.0
431.0
455.0
462.0
484.0
488.0
494.0
498.0
500.0
501.0
500.0
504.0
505.0
498.0
491.0
482.0
485.0
483.0
488.0
488.0
487.0
494.0
499.0
502.0
491.0
482.0
487.0
483.0
485.0
481.0
470.0
469.0
461.0
458.0
462.0
472.0
482.0
468.0
469.0
496.0
493.0
487.0
485.0
481.0
486.0
487.0
488.0
483.0
484.0
487.0
459.0
353.0
286.0
420.0
708.0
798.0
660.0
520.0
480.0
470.0
459.0
457.0
467.0
477.0
475.0
476.0
477.0
469.0
470.0
467.0
461.0
449.0
442.0
428.0
403.0
396.0
395.0
381.0
377.0
391.0
400.0
419.0
451.0
485.0
512.0
538.0
547.0
542.0
554.0
556.0
550.0
556.0
552.0
554.0
556.0
555.0
547.0
543.0
549.0
548.0
541.0
538.0
541.0
536.0
537.0
550.0
544.0
539.0
536.0
535.0
539.0
536.0
519.0
517.0
513.0
506.0
508.0
521.0
527.0
516.0
507.0
529.0
542.0
532.0
531.0
528.0
531.0
534.0
528.0
525.0
523.0
520.0
509.0
447.0
324.0
323.0
568.0
812.0
807.0
612.0
518.0
502.0
474.0
485.0
474.0
458.0
469.0
465.0
459.0
467.0
459.0
471.0
450.0
443.0
440.0
430.0
403.0
383.0
369.0
358.0
359.0
349.0
358.0
370.0
400.0
442.0
461.0
483.0
495.0
497.0
510.0
516.0
519.0
519.0
513.0
515.0
511.0
502.0
496.0
494.0
480.0
475.0
488.0
500.0
503.0
501.0
507.0
511.0
500.0
512.0
506.0
512.0
516.0
509.0
500.0
494.0
486.0
492.0
486.0
496.0
494.0
493.0
507.0
495.0
497.0
518.0
514.0
510.0
518.0
504.0
517.0
521.0
525.0
512.0
502.0
503.0
491.0
397.0
298.0
381.0
697.0
863.0
743.0
568.0
515.0
488.0
486.0
480.0
467.0
461.0
465.0
469.0
464.0
451.0
455.0
464.0
437.0
442.0
422.0
410.0
405.0
387.0
379.0
376.0
373.0
360.0
379.0
380.0
419.0
443.0
473.0
474.0
496.0
505.0
494.0
504.0
492.0
481.0
487.0
483.0
476.0
480.0
485.0
478.0
464.0
467.0
462.0
476.0
471.0
476.0
472.0
480.0
480.0
492.0
495.0
489.0
489.0
495.0
500.0
490.0
505.0
489.0
478.0
490.0
487.0
505.0
496.0
490.0
509.0
518.0
526.0
547.0
535.0
524.0
540.0
545.0
540.0
542.0
534.0
532.0
513.0
388.0
294.0
460.0
784.0
860.0
711.0
583.0
532.0
521.0
512.0
504.0
504.0
497.0
496.0
483.0
484.0
473.0
464.0
460.0
445.0
440.0
424.0
411.0
391.0
365.0
364.0
358.0
358.0
365.0
381.0
402.0
424.0
461.0
479.0
507.0
512.0
517.0
522.0
527.0
525.0
510.0
507.0
503.0
507.0
489.0
485.0
481.0
488.0
478.0
482.0
483.0
485.0
486.0
490.0
487.0
483.0
476.0
480.0
485.0
487.0
488.0
481.0
463.0
457.0
456.0
455.0
446.0
459.0
473.0
472.0
470.0
479.0
491.0
487.0
489.0
490.0
487.0
486.0
494.0
478.0
477.0
481.0
474.0
380.0
241.0
282.0
599.0
827.0
729.0
536.0
483.0
462.0
446.0
438.0
438.0
434.0
431.0
431.0
423.0
410.0
404.0
406.0
394.0
387.0
383.0
372.0
351.0
321.0
329.0
320.0
312.0
319.0
320.0
345.0
383.0
419.0
436.0
462.0
473.0
466.0
458.0
450.0
449.0
459.0
460.0
453.0
451.0
448.0
446.0
452.0
444.0
433.0
442.0
432.0
435.0
444.0
440.0
438.0
444.0
449.0
448.0
457.0
457.0
462.0
459.0
440.0
444.0
436.0
431.0
431.0
429.0
440.0
449.0
451.0
445.0
432.0
451.0
460.0
447.0
446.0
469.0
464.0
457.0
449.0
432.0
455.0
445.0
424.0
321.0
235.0
376.0
702.0
811.0
664.0
499.0
486.0
473.0
461.0
437.0
430.0
446.0
445.0
448.0
445.0
447.0
444.0
439.0
435.0
440.0
416.0
373.0
371.0
355.0
316.0
334.0
335.0
330.0
338.0
364.0
408.0
431.0
451.0
466.0
483.0
494.0
508.0
509.0
496.0
495.0
488.0
496.0
483.0
480.0
475.0
470.0
465.0
462.0
457.0
443.0
435.0
436.0
435.0
439.0
457.0
463.0
463.0
459.0
445.0
450.0
462.0
461.0
441.0
422.0
415.0
400.0
403.0
405.0
388.0
386.0
408.0
409.0
417.0
429.0
423.0
417.0
423.0
426.0
416.0
419.0
421.0
406.0
335.0
234.0
299.0
576.0
747.0
663.0
491.0
444.0
430.0
413.0
406.0
409.0
399.0
403.0
396.0
394.0
387.0
384.0
376.0
369.0
370.0
361.0
351.0
343.0
331.0
319.0
308.0
317.0
314.0
319.0
340.0
371.0
403.0
433.0
438.0
463.0
468.0
467.0
461.0
460.0
452.0
457.0
461.0
448.0
441.0
448.0
438.0
442.0
434.0
425.0
434.0
438.0
429.0
433.0
431.0
448.0
452.0
442.0
449.0
464.0
453.0
443.0
459.0
449.0
444.0
440.0
436.0
433.0
441.0
445.0
438.0
435.0
437.0
444.0
449.0
452.0
451.0
457.0
448.0
443.0
447.0
445.0
438.0
435.0
375.0
262.0
285.0
532.0
752.0
708.0
535.0
457.0
438.0
435.0
431.0
430.0
422.0
422.0
423.0
408.0
408.0
407.0
410.0
408.0
402.0
399.0
391.0
373.0
369.0
362.0
349.0
355.0
356.0
346.0
355.0
385.0
401.0
424.0
444.0
457.0
475.0
467.0
463.0
470.0
459.0
460.0
460.0
453.0
453.0
452.0
451.0
459.0
452.0
454.0
462.0
458.0
460.0
468.0
470.0
464.0
464.0
474.0
470.0
468.0
468.0
465.0
466.0
466.0
462.0
454.0
456.0
450.0
455.0
457.0
459.0
460.0
461.0
485.0
487.0
472.0
478.0
466.0
485.0
490.0
479.0
478.0
481.0
467.0
422.0
328.0
344.0
555.0
759.0
750.0
589.0
508.0
472.0
466.0
459.0
466.0
459.0
454.0
457.0
447.0
445.0
438.0
432.0
430.0
419.0
416.0
415.0
404.0
376.0
374.0
378.0
372.0
372.0
377.0
394.0
399.0
419.0
453.0
471.0
482.0
480.0
488.0
489.0
492.0
488.0
484.0
481.0
467.0
468.0
465.0
462.0
453.0
443.0
443.0
454.0
453.0
453.0
454.0
450.0
444.0
443.0
459.0
452.0
449.0
463.0
446.0
432.0
442.0
432.0
431.0
422.0
432.0
446.0
450.0
452.0
461.0
459.0
463.0
459.0
457.0
453.0
466.0
473.0
469.0
461.0
453.0
451.0
424.0
350.0
312.0
428.0
625.0
707.0
605.0
465.0
444.0
442.0
438.0
432.0
439.0
443.0
443.0
432.0
429.0
419.0
424.0
410.0
404.0
400.0
398.0
389.0
381.0
366.0
365.0
355.0
348.0
348.0
359.0
377.0
399.0
432.0
451.0
463.0
467.0
465.0
474.0
484.0
491.0
481.0
486.0
482.0
472.0
456.0
455.0
475.0
470.0
477.0
483.0
496.0
503.0
506.0
500.0
500.0
492.0
497.0
493.0
482.0
490.0
485.0
488.0
476.0
487.0
492.0
483.0
506.0
493.0
496.0
501.0
504.0
517.0
516.0
517.0
515.0
516.0
511.0
509.0
505.0
506.0
499.0
428.0
343.0
449.0
703.0
799.0
661.0
535.0
512.0
491.0
484.0
478.0
475.0
461.0
457.0
452.0
443.0
455.0
436.0
436.0
432.0
421.0
411.0
400.0
391.0
371.0
378.0
364.0
366.0
368.0
371.0
392.0
433.0
455.0
459.0
469.0
490.0
495.0
482.0
480.0
471.0
473.0
480.0
472.0
463.0
454.0
436.0
426.0
428.0
450.0
479.0
464.0
455.0
460.0
472.0
453.0
459.0
464.0
458.0
454.0
442.0
434.0
435.0
419.0
401.0
421.0
438.0
425.0
413.0
417.0
433.0
436.0
440.0
440.0
434.0
430.0
425.0
421.0
423.0
417.0
402.0
319.0
218.0
310.0
587.0
734.0
636.0
472.0
420.0
403.0
396.0
397.0
395.0
382.0
383.0
392.0
383.0
367.0
372.0
370.0
353.0
334.0
331.0
317.0
284.0
287.0
283.0
273.0
286.0
294.0
295.0
342.0
350.0
390.0
409.0
416.0
437.0
432.0
440.0
443.0
441.0
448.0
443.0
442.0
439.0
431.0
422.0
416.0
428.0
423.0
421.0
438.0
430.0
434.0
432.0
422.0
426.0
433.0
432.0
434.0
432.0
435.0
418.0
408.0
413.0
417.0
429.0
430.0
430.0
443.0
444.0
440.0
436.0
433.0
435.0
423.0
418.0
415.0
419.0
418.0
404.0
294.0
257.0
457.0
711.0
753.0
591.0
459.0
428.0
421.0
408.0
405.0
413.0
401.0
396.0
390.0
385.0
389.0
391.0
384.0
388.0
383.0
376.0
356.0
356.0
339.0
321.0
316.0
311.0
320.0
338.0
375.0
417.0
451.0
460.0
480.0
505.0
514.0
527.0
530.0
516.0
514.0
516.0
501.0
473.0
487.0
449.0
397.0
430.0
471.0
473.0
486.0
459.0
445.0
448.0
440.0
423.0
419.0
435.0
422.0
422.0
425.0
439.0
432.0
453.0
441.0
446.0
472.0
505.0
531.0
534.0
538.0
521.0
543.0
549.0
530.0
540.0
525.0
495.0
456.0
331.0
310.0
540.0
743.0
757.0
595.0
461.0
476.0
472.0
479.0
484.0
466.0
431.0
446.0
444.0
445.0
476.0
476.0
496.0
499.0
491.0
472.0
439.0
425.0
402.0
374.0
376.0
372.0
353.0
380.0
439.0
462.0
493.0
536.0
516.0
512.0
517.0
535.0
509.0
496.0
501.0
497.0
470.0
469.0
471.0
492.0
512.0
516.0
515.0
517.0
531.0
520.0
513.0
522.0
514.0
507.0
495.0
485.0
497.0
492.0
519.0
544.0
545.0
546.0
554.0
552.0
544.0
542.0
559.0
571.0
577.0
560.0
569.0
572.0
551.0
552.0
476.0
377.0
410.0
667.0
848.0
778.0
626.0
584.0
571.0
574.0
568.0
561.0
549.0
552.0
545.0
530.0
531.0
537.0
550.0
542.0
530.0
511.0
499.0
471.0
472.0
441.0
426.0
420.0
382.0
414.0
449.0
484.0
517.0
524.0
540.0
569.0
577.0
585.0
596.0
576.0
585.0
557.0
559.0
557.0
531.0
534.0
535.0
510.0
480.0
498.0
487.0
487.0
499.0
520.0
486.0
499.0
504.0
469.0
442.0
414.0
413.0
446.0
442.0
416.0
468.0
495.0
452.0
451.0
441.0
439.0
457.0
476.0
447.0
449.0
462.0
438.0
338.0
244.0
367.0
594.0
657.0
585.0
467.0
442.0
434.0
425.0
411.0
408.0
403.0
415.0
425.0
432.0
410.0
417.0
391.0
380.0
373.0
345.0
322.0
347.0
315.0
287.0
310.0
287.0
265.0
279.0
370.0
373.0
376.0
408.0
441.0
439.0
467.0
467.0
437.0
464.0
516.0
523.0
533.0
542.0
536.0
533.0
532.0
537.0
542.0
527.0
535.0
534.0
538.0
526.0
503.0
449.0
452.0
411.0
300.0
283.0
561.0
771.0
712.0
547.0
537.0
504.0
467.0
486.0
476.0
493.0
512.0
504.0
495.0
497.0
487.0
504.0
513.0
478.0
462.0
457.0
434.0
428.0
429.0
432.0
398.0
396.0
411.0
440.0
463.0
462.0
493.0
524.0
538.0
534.0
521.0
539.0
558.0
547.0
558.0
547.0
525.0
524.0
532.0
529.0
516.0
515.0
517.0
529.0
519.0
513.0
506.0
522.0
537.0
548.0
552.0
523.0
506.0
514.0
505.0
501.0
528.0
545.0
557.0
532.0
520.0
504.0
482.0
483.0
451.0
441.0
446.0
447.0
451.0
471.0
476.0
477.0
474.0
453.0
473.0
474.0
485.0
481.0
477.0
489.0
489.0
490.0
491.0
474.0
380.0
281.0
371.0
666.0
736.0
612.0
567.0
529.0
527.0
540.0
513.0
508.0
483.0
470.0
462.0
453.0
464.0
470.0
457.0
434.0
460.0
455.0
437.0
443.0
420.0
389.0
378.0
363.0
366.0
367.0
386.0
401.0
422.0
448.0
471.0
484.0
492.0
488.0
492.0
499.0
494.0
489.0
489.0
481.0
474.0
461.0
457.0
460.0
474.0
476.0
460.0
460.0
461.0
460.0
462.0
457.0
443.0
429.0
421.0
399.0
407.0
390.0
411.0
470.0
484.0
480.0
507.0
531.0
503.0
520.0
529.0
504.0
461.0
459.0
429.0
307.0
284.0
504.0
751.0
776.0
637.0
552.0
516.0
509.0
508.0
494.0
505.0
519.0
513.0
507.0
491.0
493.0
469.0
458.0
453.0
433.0
416.0
389.0
364.0
343.0
334.0
331.0
318.0
337.0
352.0
398.0
430.0
459.0
476.0
488.0
505.0
521.0
516.0
503.0
476.0
491.0
498.0
497.0
519.0
485.0
462.0
471.0
480.0
487.0
467.0
454.0
452.0
451.0
458.0
438.0
419.0
436.0
438.0
435.0
460.0
466.0
480.0
496.0
483.0
496.0
459.0
482.0
485.0
472.0
456.0
439.0
337.0
231.0
336.0
632.0
723.0
630.0
527.0
476.0
464.0
472.0
466.0
474.0
472.0
470.0
467.0
475.0
493.0
486.0
482.0
481.0
478.0
471.0
447.0
435.0
420.0
392.0
400.0
406.0
397.0
408.0
438.0
477.0
493.0
507.0
505.0
527.0
534.0
504.0
529.0
519.0
510.0
520.0
509.0
499.0
498.0
484.0
507.0
504.0
472.0
491.0
465.0
462.0
491.0
464.0
450.0
428.0
404.0
432.0
453.0
478.0
487.0
503.0
512.0
509.0
524.0
508.0
498.0
512.0
490.0
487.0
414.0
279.0
312.0
638.0
839.0
743.0
601.0
543.0
514.0
528.0
535.0
492.0
457.0
448.0
446.0
407.0
435.0
482.0
353.0
408.0
471.0
423.0
413.0
381.0
392.0
374.0
375.0
340.0
355.0
435.0
461.0
526.0
547.0
560.0
581.0
568.0
575.0
603.0
596.0
611.0
611.0
580.0
554.0
517.0
430.0
384.0
468.0
423.0
432.0
425.0
399.0
418.0
403.0
403.0
432.0
439.0
403.0
452.0
495.0
477.0
494.0
511.0
536.0
531.0
528.0
562.0
567.0
551.0
562.0
448.0
304.0
402.0
664.0
813.0
701.0
524.0
436.0
403.0
432.0
389.0
393.0
483.0
457.0
371.0
378.0
421.0
460.0
457.0
411.0
400.0
382.0
385.0
395.0
428.0
408.0
385.0
411.0
411.0
391.0
439.0
486.0
529.0
573.0
560.0
482.0
343.0
342.0
493.0
551.0
523.0
464.0
448.0
467.0
436.0
430.0
469.0
496.0
491.0
458.0
418.0
408.0
429.0
471.0
483.0
478.0
503.0
497.0
494.0
499.0
482.0
508.0
454.0
292.0
163.0
380.0
649.0
619.0
488.0
429.0
365.0
405.0
461.0
446.0
337.0
352.0
374.0
472.0
444.0
408.0
394.0
398.0
436.0
460.0
472.0
486.0
471.0
363.0
368.0
389.0
389.0
413.0
393.0
384.0
418.0
406.0
545.0
567.0
505.0
437.0
443.0
478.0
482.0
431.0
469.0
510.0
525.0
508.0
468.0
432.0
469.0
495.0
464.0
472.0
493.0
508.0
514.0
518.0
508.0
487.0
473.0
436.0
403.0
432.0
456.0
432.0
426.0
438.0
480.0
536.0
468.0
444.0
388.0
322.0
407.0
327.0
274.0
334.0
597.0
701.0
638.0
517.0
498.0
523.0
507.0
508.0
485.0
503.0
527.0
488.0
487.0
427.0
356.0
321.0
387.0
348.0
398.0
388.0
352.0
232.0
176.0
241.0
292.0
287.0
316.0
352.0
390.0
394.0
386.0
444.0
453.0
456.0
492.0
513.0
508.0
519.0
545.0
539.0
551.0
548.0
513.0
453.0
395.0
407.0
347.0
303.0
395.0
475.0
367.0
439.0
502.0
409.0
269.0
346.0
421.0
467.0
492.0
448.0
455.0
435.0
431.0
483.0
416.0
310.0
372.0
620.0
810.0
719.0
585.0
491.0
484.0
422.0
385.0
381.0
420.0
514.0
534.0
446.0
431.0
392.0
403.0
414.0
392.0
379.0
407.0
348.0
296.0
295.0
306.0
317.0
311.0
344.0
397.0
444.0
479.0
522.0
550.0
587.0
588.0
539.0
555.0
556.0
519.0
508.0
531.0
525.0
473.0
418.0
415.0
448.0
513.0
455.0
442.0
408.0
376.0
391.0
350.0
417.0
454.0
492.0
448.0
365.0
425.0
487.0
511.0
560.0
517.0
494.0
469.0
333.0
287.0
545.0
800.0
760.0
575.0
528.0
547.0
508.0
476.0
481.0
513.0
486.0
484.0
501.0
487.0
495.0
483.0
406.0
401.0
380.0
361.0
311.0
289.0
287.0
274.0
294.0
346.0
301.0
365.0
417.0
411.0
448.0
469.0
467.0
497.0
501.0
503.0
479.0
449.0
445.0
416.0
440.0
399.0
416.0
354.0
372.0
466.0
390.0
291.0
283.0
327.0
417.0
447.0
450.0
456.0
436.0
404.0
409.0
465.0
455.0
416.0
445.0
460.0
439.0
308.0
160.0
249.0
609.0
752.0
655.0
495.0
437.0
422.0
427.0
465.0
395.0
397.0
387.0
352.0
349.0
348.0
357.0
359.0
361.0
343.0
363.0
342.0
341.0
319.0
269.0
273.0
278.0
301.0
309.0
332.0
375.0
405.0
458.0
483.0
430.0
417.0
392.0
446.0
472.0
467.0
458.0
397.0
414.0
387.0
400.0
419.0
401.0
359.0
396.0
400.0
392.0
396.0
419.0
437.0
419.0
480.0
560.0
540.0
502.0
530.0
504.0
484.0
513.0
515.0
405.0
241.0
296.0
601.0
723.0
575.0
591.0
386.0
424.0
616.0
451.0
325.0
308.0
306.0
400.0
429.0
423.0
402.0
433.0
444.0
408.0
350.0
310.0
302.0
260.0
263.0
280.0
295.0
336.0
353.0
385.0
395.0
399.0
427.0
458.0
450.0
488.0
467.0
433.0
402.0
419.0
463.0
465.0
435.0
398.0
393.0
391.0
358.0
335.0
332.0
372.0
385.0
382.0
374.0
401.0
423.0
391.0
433.0
481.0
462.0
443.0
464.0
462.0
425.0
417.0
322.0
191.0
281.0
638.0
806.0
620.0
414.0
409.0
391.0
421.0
413.0
387.0
416.0
405.0
436.0
450.0
418.0
433.0
440.0
441.0
437.0
439.0
421.0
381.0
356.0
291.0
261.0
287.0
289.0
329.0
379.0
434.0
499.0
475.0
461.0
496.0
456.0
482.0
474.0
465.0
453.0
426.0
463.0
440.0
402.0
460.0
431.0
432.0
427.0
446.0
472.0
423.0
396.0
431.0
464.0
477.0
454.0
424.0
390.0
428.0
458.0
476.0
492.0
493.0
439.0
353.0
204.0
289.0
627.0
775.0
655.0
519.0
520.0
490.0
477.0
434.0
372.0
389.0
399.0
392.0
401.0
443.0
448.0
430.0
434.0
424.0
444.0
431.0
394.0
355.0
335.0
313.0
327.0
326.0
331.0
373.0
407.0
444.0
482.0
500.0
511.0
525.0
513.0
495.0
497.0
504.0
473.0
445.0
463.0
424.0
430.0
436.0
439.0
433.0
430.0
412.0
388.0
425.0
455.0
450.0
450.0
489.0
507.0
490.0
469.0
465.0
445.0
448.0
467.0
474.0
421.0
272.0
229.0
442.0
704.0
778.0
648.0
529.0
507.0
489.0
473.0
466.0
440.0
435.0
434.0
409.0
429.0
441.0
416.0
404.0
398.0
419.0
430.0
416.0
385.0
343.0
322.0
326.0
334.0
325.0
352.0
385.0
419.0
424.0
454.0
484.0
498.0
504.0
522.0
542.0
522.0
490.0
479.0
464.0
459.0
449.0
456.0
458.0
441.0
450.0
441.0
379.0
334.0
368.0
408.0
416.0
423.0
484.0
510.0
504.0
504.0
505.0
468.0
441.0
435.0
427.0
344.0
227.0
312.0
609.0
747.0
638.0
499.0
454.0
452.0
461.0
469.0
466.0
452.0
434.0
442.0
453.0
455.0
434.0
429.0
409.0
369.0
353.0
336.0
300.0
328.0
322.0
303.0
342.0
348.0
354.0
345.0
388.0
435.0
440.0
467.0
487.0
477.0
509.0
501.0
486.0
461.0
436.0
434.0
437.0
449.0
446.0
446.0
450.0
447.0
436.0
420.0
410.0
415.0
425.0
431.0
445.0
483.0
470.0
419.0
420.0
446.0
435.0
433.0
455.0
460.0
461.0
384.0
285.0
390.0
636.0
783.0
689.0
530.0
465.0
452.0
461.0
434.0
440.0
438.0
399.0
419.0
428.0
420.0
423.0
440.0
424.0
426.0
402.0
384.0
371.0
350.0
335.0
349.0
353.0
354.0
379.0
387.0
406.0
431.0
429.0
452.0
502.0
519.0
523.0
508.0
495.0
475.0
490.0
493.0
481.0
459.0
444.0
446.0
464.0
435.0
418.0
436.0
419.0
421.0
439.0
449.0
457.0
466.0
486.0
473.0
483.0
492.0
504.0
505.0
500.0
508.0
501.0
465.0
309.0
237.0
462.0
720.0
735.0
579.0
461.0
417.0
421.0
438.0
442.0
462.0
478.0
472.0
467.0
451.0
450.0
422.0
397.0
386.0
376.0
366.0
354.0
356.0
345.0
345.0
322.0
319.0
344.0
348.0
384.0
398.0
409.0
437.0
438.0
459.0
476.0
465.0
468.0
474.0
479.0
468.0
473.0
475.0
474.0
460.0
462.0
458.0
433.0
403.0
392.0
379.0
412.0
463.0
482.0
491.0
492.0
493.0
496.0
492.0
499.0
521.0
535.0
478.0
470.0
473.0
470.0
357.0
229.0
375.0
706.0
828.0
671.0
507.0
471.0
456.0
456.0
447.0
433.0
437.0
445.0
434.0
442.0
449.0
432.0
424.0
419.0
411.0
393.0
379.0
365.0
340.0
331.0
325.0
321.0
331.0
352.0
381.0
407.0
431.0
456.0
477.0
490.0
483.0
467.0
455.0
444.0
443.0
423.0
416.0
423.0
405.0
410.0
422.0
433.0
438.0
438.0
433.0
452.0
431.0
412.0
436.0
440.0
438.0
436.0
453.0
452.0
458.0
466.0
477.0
482.0
468.0
480.0
476.0
469.0
374.0
216.0
241.0
547.0
766.0
705.0
533.0
458.0
450.0
431.0
423.0
433.0
450.0
461.0
471.0
470.0
452.0
443.0
442.0
408.0
369.0
357.0
349.0
325.0
315.0
320.0
329.0
327.0
346.0
366.0
395.0
432.0
456.0
461.0
478.0
484.0
491.0
508.0
491.0
473.0
470.0
463.0
452.0
430.0
433.0
453.0
465.0
449.0
443.0
435.0
425.0
403.0
405.0
392.0
382.0
401.0
405.0
409.0
421.0
443.0
465.0
470.0
489.0
491.0
484.0
486.0
495.0
473.0
447.0
325.0
210.0
335.0
661.0
808.0
661.0
504.0
482.0
456.0
471.0
435.0
398.0
402.0
394.0
389.0
370.0
388.0
405.0
398.0
385.0
374.0
391.0
366.0
357.0
374.0
387.0
345.0
327.0
321.0
311.0
358.0
386.0
403.0
430.0
443.0
447.0
437.0
442.0
435.0
438.0
453.0
457.0
443.0
446.0
460.0
456.0
448.0
450.0
436.0
443.0
439.0
406.0
398.0
405.0
384.0
376.0
400.0
408.0
387.0
406.0
429.0
423.0
422.0
422.0
439.0
445.0
449.0
450.0
442.0
425.0
383.0
234.0
194.0
461.0
742.0
784.0
612.0
504.0
469.0
453.0
428.0
424.0
428.0
422.0
426.0
423.0
412.0
428.0
419.0
396.0
382.0
368.0
340.0
329.0
347.0
347.0
295.0
293.0
336.0
343.0
394.0
412.0
435.0
460.0
463.0
445.0
442.0
421.0
415.0
424.0
416.0
433.0
435.0
425.0
415.0
422.0
416.0
423.0
434.0
457.0
455.0
450.0
426.0
408.0
405.0
395.0
376.0
359.0
304.0
367.0
403.0
421.0
434.0
467.0
454.0
448.0
436.0
448.0
439.0
413.0
403.0
314.0
200.0
295.0
593.0
749.0
649.0
501.0
450.0
410.0
418.0
417.0
423.0
433.0
448.0
448.0
437.0
440.0
440.0
423.0
408.0
416.0
391.0
368.0
383.0
366.0
324.0
304.0
334.0
346.0
353.0
379.0
408.0
421.0
438.0
440.0
435.0
432.0
446.0
465.0
472.0
472.0
470.0
482.0
445.0
423.0
422.0
420.0
417.0
424.0
405.0
409.0
413.0
415.0
417.0
413.0
392.0
400.0
421.0
435.0
428.0
430.0
441.0
409.0
401.0
409.0
371.0
380.0
428.0
426.0
415.0
404.0
291.0
249.0
367.0
618.0
729.0
595.0
470.0
444.0
422.0
429.0
449.0
447.0
430.0
438.0
423.0
429.0
444.0
459.0
451.0
457.0
460.0
438.0
429.0
417.0
392.0
390.0
427.0
414.0
411.0
431.0
440.0
483.0
546.0
539.0
529.0
526.0
563.0
547.0
528.0
520.0
424.0
352.0
437.0
422.0
426.0
442.0
466.0
455.0
437.0
425.0
434.0
411.0
385.0
389.0
392.0
391.0
382.0
405.0
405.0
414.0
440.0
466.0
470.0
462.0
486.0
482.0
500.0
539.0
490.0
259.0
248.0
484.0
614.0
563.0
399.0
365.0
376.0
327.0
387.0
445.0
411.0
379.0
333.0
348.0
334.0
343.0
361.0
349.0
327.0
306.0
300.0
293.0
288.0
289.0
291.0
283.0
286.0
290.0
320.0
348.0
367.0
390.0
407.0
407.0
384.0
400.0
411.0
393.0
400.0
372.0
384.0
357.0
326.0
319.0
323.0
313.0
284.0
345.0
347.0
337.0
335.0
320.0
324.0
313.0
343.0
361.0
359.0
383.0
383.0
388.0
403.0
425.0
377.0
352.0
360.0
351.0
330.0
207.0
163.0
378.0
565.0
572.0
455.0
373.0
383.0
378.0
370.0
374.0
363.0
375.0
362.0
347.0
385.0
377.0
350.0
328.0
317.0
339.0
333.0
339.0
305.0
263.0
257.0
267.0
267.0
299.0
316.0
349.0
368.0
392.0
423.0
427.0
443.0
445.0
454.0
479.0
462.0
445.0
462.0
446.0
430.0
420.0
449.0
455.0
450.0
441.0
433.0
407.0
419.0
417.0
405.0
407.0
408.0
437.0
475.0
449.0
413.0
430.0
424.0
434.0
438.0
420.0
451.0
381.0
257.0
334.0
625.0
767.0
656.0
508.0
455.0
439.0
440.0
449.0
456.0
456.0
444.0
438.0
436.0
453.0
460.0
469.0
467.0
442.0
446.0
458.0
427.0
411.0
398.0
386.0
372.0
330.0
317.0
378.0
412.0
465.0
526.0
535.0
528.0
491.0
469.0
465.0
480.0
501.0
488.0
462.0
466.0
451.0
431.0
423.0
431.0
437.0
426.0
425.0
458.0
458.0
460.0
494.0
491.0
480.0
503.0
500.0
488.0
509.0
506.0
487.0
465.0
440.0
443.0
361.0
211.0
329.0
620.0
756.0
658.0
537.0
477.0
480.0
481.0
484.0
477.0
483.0
481.0
459.0
463.0
463.0
428.0
430.0
455.0
431.0
408.0
413.0
405.0
390.0
376.0
368.0
395.0
385.0
398.0
464.0
448.0
426.0
451.0
460.0
482.0
474.0
467.0
480.0
496.0
477.0
488.0
472.0
469.0
447.0
422.0
432.0
432.0
415.0
398.0
404.0
405.0
409.0
434.0
436.0
443.0
446.0
453.0
456.0
477.0
493.0
491.0
486.0
498.0
496.0
409.0
311.0
394.0
664.0
770.0
676.0
571.0
529.0
519.0
505.0
495.0
485.0
472.0
501.0
522.0
504.0
484.0
473.0
464.0
469.0
459.0
450.0
428.0
407.0
398.0
390.0
397.0
400.0
396.0
419.0
443.0
467.0
485.0
511.0
522.0
520.0
528.0
533.0
520.0
522.0
525.0
517.0
508.0
500.0
489.0
487.0
486.0
468.0
435.0
454.0
477.0
470.0
464.0
473.0
473.0
447.0
465.0
497.0
515.0
526.0
523.0
504.0
479.0
467.0
417.0
280.0
247.0
468.0
732.0
749.0
590.0
535.0
512.0
477.0
464.0
461.0
463.0
458.0
452.0
448.0
443.0
439.0
441.0
427.0
425.0
409.0
380.0
356.0
334.0
331.0
327.0
323.0
322.0
343.0
380.0
418.0
457.0
458.0
457.0
452.0
458.0
450.0
446.0
441.0
441.0
442.0
441.0
437.0
434.0
428.0
414.0
409.0
417.0
402.0
398.0
402.0
410.0
419.0
418.0
430.0
436.0
443.0
455.0
463.0
451.0
456.0
450.0
437.0
435.0
396.0
242.0
173.0
433.0
730.0
732.0
575.0
500.0
463.0
456.0
446.0
430.0
443.0
456.0
460.0
411.0
472.0
460.0
430.0
423.0
422.0
414.0
397.0
355.0
328.0
318.0
327.0
341.0
337.0
353.0
371.0
393.0
428.0
452.0
470.0
481.0
495.0
487.0
483.0
477.0
467.0
459.0
453.0
440.0
432.0
425.0
404.0
398.0
400.0
391.0
373.0
374.0
392.0
387.0
394.0
416.0
423.0
426.0
425.0
427.0
428.0
424.0
425.0
427.0
424.0
410.0
355.0
212.0
202.0
471.0
735.0
715.0
526.0
436.0
415.0
389.0
391.0
380.0
369.0
368.0
369.0
378.0
385.0
372.0
376.0
377.0
350.0
336.0
326.0
306.0
281.0
273.0
284.0
274.0
284.0
310.0
323.0
368.0
393.0
384.0
399.0
425.0
432.0
447.0
448.0
433.0
425.0
439.0
440.0
420.0
425.0
435.0
424.0
422.0
448.0
426.0
420.0
438.0
409.0
380.0
401.0
408.0
436.0
462.0
468.0
447.0
466.0
456.0
420.0
425.0
408.0
418.0
443.0
421.0
380.0
241.0
181.0
430.0
707.0
736.0
577.0
474.0
446.0
413.0
423.0
439.0
432.0
425.0
439.0
450.0
468.0
454.0
428.0
434.0
382.0
354.0
339.0
289.0
267.0
276.0
272.0
271.0
270.0
279.0
288.0
317.0
344.0
365.0
408.0
425.0
448.0
452.0
447.0
450.0
440.0
452.0
461.0
442.0
442.0
443.0
443.0
434.0
448.0
446.0
438.0
460.0
445.0
412.0
436.0
441.0
418.0
484.0
513.0
480.0
508.0
526.0
465.0
384.0
418.0
399.0
355.0
350.0
323.0
247.0
207.0
366.0
610.0
681.0
572.0
496.0
469.0
449.0
449.0
413.0
388.0
412.0
408.0
421.0
451.0
430.0
412.0
374.0
346.0
273.0
259.0
311.0
319.0
340.0
372.0
327.0
314.0
318.0
275.0
305.0
359.0
390.0
419.0
436.0
462.0
434.0
457.0
470.0
446.0
430.0
425.0
450.0
479.0
482.0
474.0
432.0
423.0
406.0
409.0
433.0
433.0
412.0
388.0
357.0
387.0
430.0
401.0
408.0
453.0
529.0
529.0
470.0
460.0
403.0
338.0
301.0
390.0
367.0
213.0
262.0
545.0
683.0
604.0
493.0
452.0
453.0
478.0
523.0
483.0
470.0
459.0
380.0
415.0
412.0
384.0
394.0
384.0
374.0
358.0
388.0
361.0
326.0
341.0
340.0
312.0
282.0
318.0
307.0
291.0
341.0
366.0
419.0
434.0
446.0
467.0
463.0
450.0
450.0
445.0
469.0
486.0
442.0
371.0
379.0
374.0
406.0
428.0
424.0
375.0
366.0
384.0
382.0
345.0
311.0
373.0
431.0
414.0
371.0
397.0
389.0
423.0
435.0
414.0
411.0
374.0
232.0
186.0
437.0
631.0
628.0
524.0
436.0
424.0
434.0
454.0
447.0
461.0
467.0
463.0
496.0
515.0
449.0
418.0
386.0
382.0
412.0
380.0
317.0
323.0
309.0
314.0
315.0
311.0
331.0
374.0
387.0
387.0
397.0
408.0
415.0
421.0
408.0
422.0
451.0
448.0
430.0
427.0
427.0
415.0
424.0
483.0
455.0
416.0
408.0
388.0
344.0
359.0
351.0
393.0
412.0
428.0
430.0
441.0
425.0
422.0
456.0
460.0
445.0
417.0
369.0
332.0
363.0
189.0
169.0
530.0
692.0
618.0
511.0
422.0
382.0
396.0
390.0
371.0
385.0
391.0
382.0
387.0
382.0
372.0
365.0
381.0
389.0
366.0
334.0
313.0
307.0
302.0
324.0
361.0
312.0
337.0
368.0
388.0
409.0
416.0
404.0
435.0
449.0
470.0
464.0
451.0
470.0
469.0
428.0
410.0
405.0
373.0
371.0
394.0
387.0
380.0
356.0
370.0
396.0
383.0
389.0
419.0
420.0
425.0
420.0
427.0
424.0
422.0
416.0
401.0
409.0
398.0
313.0
197.0
248.0
562.0
729.0
620.0
486.0
440.0
424.0
423.0
404.0
399.0
389.0
375.0
378.0
377.0
373.0
391.0
385.0
378.0
362.0
329.0
304.0
300.0
305.0
311.0
294.0
275.0
283.0
294.0
319.0
333.0
355.0
419.0
422.0
421.0
429.0
416.0
407.0
407.0
388.0
403.0
407.0
407.0
408.0
384.0
345.0
356.0
374.0
349.0
352.0
372.0
371.0
383.0
393.0
384.0
392.0
402.0
401.0
403.0
411.0
423.0
409.0
410.0
405.0
379.0
238.0
123.0
290.0
622.0
702.0
573.0
460.0
413.0
408.0
389.0
355.0
357.0
353.0
376.0
396.0
385.0
369.0
371.0
382.0
356.0
343.0
344.0
336.0
312.0
326.0
319.0
281.0
300.0
335.0
371.0
387.0
429.0
438.0
463.0
483.0
506.0
503.0
491.0
492.0
510.0
504.0
502.0
504.0
492.0
493.0
496.0
464.0
445.0
421.0
402.0
417.0
431.0
430.0
435.0
458.0
472.0
487.0
493.0
466.0
454.0
467.0
483.0
464.0
455.0
461.0
379.0
227.0
259.0
568.0
799.0
725.0
539.0
498.0
469.0
458.0
464.0
455.0
444.0
444.0
424.0
419.0
423.0
403.0
403.0
397.0
387.0
341.0
318.0
311.0
306.0
327.0
361.0
370.0
348.0
370.0
401.0
432.0
455.0
454.0
457.0
476.0
494.0
486.0
494.0
485.0
487.0
489.0
470.0
474.0
470.0
456.0
441.0
449.0
455.0
453.0
428.0
423.0
436.0
437.0
445.0
456.0
467.0
467.0
474.0
459.0
450.0
461.0
458.0
467.0
485.0
468.0
423.0
292.0
231.0
454.0
777.0
811.0
601.0
500.0
469.0
445.0
432.0
424.0
419.0
437.0
437.0
433.0
432.0
438.0
451.0
419.0
398.0
406.0
380.0
351.0
342.0
330.0
325.0
334.0
331.0
357.0
399.0
437.0
464.0
467.0
482.0
495.0
481.0
494.0
483.0
471.0
461.0
464.0
463.0
453.0
466.0
467.0
467.0
487.0
492.0
472.0
470.0
457.0
445.0
454.0
465.0
481.0
481.0
486.0
487.0
477.0
486.0
469.0
465.0
455.0
459.0
480.0
471.0
431.0
301.0
199.0
383.0
696.0
745.0
608.0
509.0
457.0
437.0
440.0
448.0
440.0
451.0
448.0
459.0
456.0
458.0
431.0
419.0
407.0
387.0
383.0
367.0
357.0
356.0
365.0
361.0
381.0
396.0
423.0
461.0
500.0
522.0
503.0
499.0
508.0
473.0
457.0
427.0
403.0
436.0
410.0
397.0
430.0
432.0
442.0
422.0
429.0
414.0
398.0
378.0
391.0
405.0
408.0
434.0
440.0
430.0
421.0
429.0
434.0
437.0
426.0
425.0
426.0
424.0
404.0
312.0
248.0
405.0
669.0
707.0
573.0
474.0
405.0
383.0
407.0
403.0
396.0
405.0
396.0
399.0
403.0
378.0
349.0
332.0
354.0
357.0
354.0
332.0
311.0
311.0
350.0
325.0
303.0
340.0
356.0
393.0
425.0
445.0
464.0
466.0
497.0
497.0
468.0
479.0
477.0
462.0
479.0
483.0
470.0
471.0
465.0
467.0
508.0
496.0
415.0
398.0
383.0
408.0
447.0
434.0
433.0
418.0
437.0
461.0
460.0
450.0
461.0
461.0
461.0
454.0
376.0
261.0
302.0
611.0
825.0
685.0
513.0
493.0
471.0
418.0
414.0
431.0
426.0
413.0
430.0
419.0
401.0
397.0
367.0
369.0
394.0
383.0
363.0
369.0
348.0
335.0
333.0
320.0
316.0
362.0
395.0
416.0
440.0
450.0
453.0
465.0
463.0
456.0
449.0
430.0
432.0
442.0
448.0
452.0
449.0
434.0
431.0
423.0
414.0
411.0
419.0
412.0
412.0
430.0
446.0
448.0
436.0
451.0
450.0
449.0
451.0
460.0
460.0
447.0
429.0
357.0
255.0
335.0
595.0
693.0
620.0
516.0
466.0
448.0
439.0
439.0
441.0
435.0
413.0
420.0
426.0
419.0
414.0
408.0
410.0
395.0
375.0
349.0
331.0
326.0
319.0
303.0
322.0
339.0
374.0
407.0
443.0
448.0
439.0
458.0
457.0
452.0
449.0
455.0
453.0
442.0
446.0
431.0
414.0
422.0
403.0
400.0
399.0
360.0
375.0
380.0
379.0
384.0
422.0
440.0
424.0
436.0
449.0
444.0
450.0
447.0
438.0
434.0
417.0
339.0
231.0
269.0
538.0
744.0
683.0
529.0
440.0
406.0
394.0
385.0
388.0
392.0
381.0
364.0
369.0
365.0
365.0
373.0
367.0
356.0
345.0
333.0
307.0
294.0
273.0
273.0
281.0
296.0
333.0
366.0
398.0
421.0
436.0
447.0
465.0
472.0
463.0
461.0
450.0
461.0
458.0
443.0
449.0
440.0
440.0
428.0
419.0
402.0
416.0
434.0
423.0
431.0
442.0
455.0
463.0
465.0
478.0
462.0
458.0
468.0
479.0
478.0
472.0
401.0
258.0
269.0
542.0
759.0
723.0
550.0
471.0
457.0
452.0
437.0
430.0
423.0
418.0
418.0
411.0
396.0
390.0
388.0
376.0
376.0
353.0
337.0
321.0
309.0
303.0
317.0
317.0
321.0
353.0
387.0
412.0
459.0
464.0
464.0
478.0
477.0
479.0
497.0
482.0
460.0
455.0
444.0
443.0
432.0
440.0
434.0
427.0
412.0
398.0
412.0
406.0
410.0
431.0
448.0
459.0
458.0
456.0
462.0
464.0
451.0
443.0
446.0
433.0
397.0
251.0
216.0
455.0
744.0
759.0
574.0
472.0
448.0
448.0
429.0
425.0
436.0
449.0
445.0
447.0
435.0
448.0
434.0
428.0
412.0
383.0
374.0
352.0
303.0
281.0
291.0
302.0
342.0
384.0
417.0
441.0
469.0
491.0
501.0
511.0
504.0
500.0
515.0
501.0
487.0
497.0
488.0
471.0
506.0
491.0
477.0
485.0
476.0
444.0
450.0
456.0
463.0
474.0
478.0
501.0
505.0
492.0
510.0
505.0
493.0
479.0
479.0
511.0
482.0
463.0
332.0
233.0
401.0
736.0
862.0
676.0
516.0
487.0
485.0
463.0
468.0
482.0
450.0
430.0
418.0
419.0
419.0
418.0
409.0
404.0
386.0
351.0
337.0
338.0
300.0
313.0
286.0
299.0
324.0
390.0
411.0
424.0
467.0
436.0
421.0
411.0
392.0
416.0
433.0
442.0
460.0
439.0
410.0
454.0
519.0
528.0
513.0
499.0
471.0
427.0
408.0
379.0
375.0
375.0
411.0
426.0
479.0
532.0
534.0
506.0
516.0
529.0
505.0
481.0
475.0
483.0
484.0
374.0
250.0
351.0
656.0
786.0
653.0
505.0
457.0
437.0
425.0
420.0
415.0
400.0
394.0
396.0
397.0
394.0
394.0
374.0
348.0
342.0
328.0
308.0
292.0
282.0
292.0
263.0
259.0
302.0
339.0
364.0
390.0
396.0
463.0
459.0
464.0
452.0
448.0
435.0
448.0
436.0
434.0
435.0
439.0
444.0
449.0
442.0
447.0
441.0
440.0
445.0
430.0
421.0
438.0
438.0
450.0
456.0
467.0
480.0
494.0
483.0
480.0
487.0
486.0
474.0
471.0
452.0
428.0
304.0
232.0
427.0
732.0
783.0
609.0
503.0
478.0
467.0
461.0
477.0
481.0
470.0
477.0
464.0
458.0
456.0
444.0
421.0
419.0
394.0
344.0
300.0
278.0
277.0
276.0
286.0
316.0
348.0
365.0
387.0
453.0
488.0
510.0
499.0
488.0
492.0
480.0
467.0
445.0
446.0
434.0
430.0
447.0
455.0
454.0
461.0
446.0
426.0
436.0
403.0
373.0
388.0
401.0
398.0
391.0
409.0
431.0
433.0
457.0
483.0
467.0
465.0
482.0
453.0
432.0
417.0
382.0
246.0
182.0
363.0
658.0
684.0
499.0
381.0
373.0
422.0
400.0
407.0
421.0
384.0
374.0
376.0
364.0
355.0
348.0
336.0
326.0
307.0
309.0
302.0
273.0
258.0
252.0
259.0
270.0
299.0
335.0
330.0
346.0
362.0
379.0
408.0
400.0
456.0
462.0
397.0
336.0
355.0
333.0
357.0
375.0
368.0
408.0
422.0
414.0
423.0
411.0
408.0
385.0
410.0
409.0
410.0
419.0
418.0
416.0
406.0
426.0
399.0
403.0
392.0
242.0
195.0
413.0
630.0
643.0
506.0
439.0
447.0
422.0
403.0
376.0
348.0
352.0
364.0
375.0
418.0
411.0
339.0
336.0
338.0
299.0
258.0
275.0
267.0
254.0
250.0
284.0
353.0
364.0
386.0
376.0
423.0
541.0
512.0
499.0
502.0
494.0
472.0
455.0
413.0
364.0
364.0
383.0
382.0
404.0
427.0
410.0
435.0
536.0
576.0
498.0
458.0
418.0
383.0
371.0
392.0
387.0
376.0
402.0
399.0
406.0
410.0
429.0
436.0
444.0
448.0
469.0
476.0
459.0
466.0
440.0
401.0
377.0
243.0
212.0
386.0
602.0
688.0
540.0
455.0
482.0
505.0
502.0
465.0
441.0
415.0
409.0
406.0
401.0
395.0
399.0
412.0
416.0
403.0
374.0
350.0
335.0
320.0
336.0
345.0
346.0
357.0
386.0
432.0
464.0
455.0
463.0
465.0
462.0
436.0
432.0
440.0
429.0
435.0
431.0
409.0
449.0
440.0
447.0
450.0
428.0
423.0
425.0
414.0
385.0
407.0
420.0
425.0
434.0
436.0
449.0
456.0
448.0
450.0
456.0
465.0
491.0
485.0
480.0
456.0
366.0
228.0
284.0
568.0
718.0
635.0
507.0
453.0
445.0
446.0
435.0
438.0
466.0
466.0
444.0
431.0
417.0
408.0
399.0
401.0
399.0
372.0
366.0
356.0
343.0
318.0
318.0
338.0
361.0
374.0
420.0
454.0
467.0
485.0
511.0
535.0
536.0
523.0
476.0
452.0
457.0
468.0
487.0
459.0
452.0
483.0
453.0
448.0
452.0
436.0
436.0
416.0
432.0
446.0
440.0
442.0
475.0
466.0
473.0
501.0
444.0
460.0
461.0
461.0
442.0
438.0
412.0
295.0
176.0
272.0
592.0
761.0
670.0
525.0
487.0
476.0
457.0
446.0
436.0
418.0
414.0
429.0
456.0
459.0
453.0
429.0
406.0
402.0
388.0
366.0
339.0
319.0
305.0
310.0
318.0
329.0
362.0
403.0
450.0
461.0
477.0
480.0
479.0
484.0
484.0
489.0
494.0
474.0
468.0
484.0
474.0
459.0
468.0
474.0
478.0
515.0
485.0
468.0
450.0
432.0
435.0
397.0
406.0
426.0
434.0
458.0
458.0
451.0
456.0
444.0
445.0
449.0
455.0
448.0
425.0
291.0
185.0
306.0
600.0
714.0
620.0
477.0
437.0
422.0
435.0
418.0
413.0
420.0
434.0
425.0
409.0
407.0
387.0
379.0
376.0
386.0
374.0
325.0
280.0
292.0
312.0
327.0
347.0
354.0
390.0
418.0
422.0
427.0
436.0
447.0
453.0
463.0
463.0
453.0
464.0
445.0
439.0
442.0
448.0
422.0
453.0
463.0
456.0
448.0
449.0
442.0
422.0
450.0
451.0
452.0
480.0
486.0
450.0
461.0
484.0
500.0
494.0
485.0
482.0
468.0
468.0
461.0
372.0
254.0
377.0
666.0
782.0
702.0
575.0
501.0
476.0
414.0
358.0
343.0
338.0
359.0
379.0
391.0
372.0
403.0
407.0
384.0
391.0
352.0
356.0
320.0
298.0
311.0
303.0
324.0
360.0
390.0
450.0
442.0
451.0
454.0
477.0
500.0
518.0
517.0
431.0
414.0
399.0
389.0
383.0
378.0
408.0
402.0
410.0
414.0
408.0
400.0
384.0
412.0
415.0
404.0
420.0
429.0
415.0
419.0
424.0
411.0
416.0
440.0
458.0
473.0
476.0
471.0
419.0
291.0
280.0
514.0
650.0
601.0
487.0
441.0
388.0
361.0
394.0
398.0
421.0
400.0
398.0
417.0
381.0
342.0
336.0
321.0
309.0
330.0
351.0
354.0
305.0
283.0
257.0
242.0
247.0
272.0
327.0
361.0
385.0
382.0
412.0
422.0
429.0
421.0
398.0
380.0
385.0
362.0
361.0
359.0
372.0
364.0
373.0
345.0
305.0
275.0
254.0
258.0
284.0
293.0
340.0
377.0
359.0
353.0
331.0
339.0
340.0
340.0
362.0
373.0
384.0
354.0
248.0
181.0
319.0
521.0
554.0
501.0
409.0
390.0
410.0
420.0
424.0
440.0
444.0
431.0
429.0
449.0
435.0
455.0
431.0
385.0
337.0
339.0
358.0
340.0
321.0
304.0
298.0
298.0
306.0
327.0
391.0
412.0
439.0
477.0
477.0
462.0
444.0
449.0
446.0
432.0
419.0
415.0
401.0
395.0
390.0
382.0
380.0
391.0
370.0
388.0
386.0
399.0
400.0
422.0
404.0
403.0
432.0
438.0
422.0
431.0
431.0
438.0
431.0
416.0
343.0
230.0
305.0
624.0
772.0
632.0
474.0
436.0
407.0
407.0
406.0
416.0
423.0
411.0
408.0
402.0
400.0
372.0
373.0
353.0
336.0
336.0
328.0
286.0
291.0
300.0
308.0
310.0
323.0
357.0
392.0
409.0
439.0
450.0
454.0
469.0
455.0
435.0
426.0
402.0
396.0
385.0
376.0
381.0
405.0
408.0
386.0
390.0
375.0
376.0
390.0
392.0
384.0
389.0
412.0
400.0
405.0
409.0
407.0
399.0
396.0
404.0
407.0
403.0
365.0
227.0
176.0
416.0
708.0
699.0
525.0
437.0
413.0
411.0
408.0
397.0
396.0
395.0
380.0
376.0
364.0
373.0
369.0
357.0
352.0
343.0
323.0
281.0
252.0
244.0
225.0
235.0
286.0
331.0
355.0
381.0
415.0
430.0
420.0
400.0
435.0
448.0
433.0
432.0
439.0
443.0
431.0
434.0
420.0
417.0
423.0
413.0
409.0
397.0
412.0
418.0
416.0
410.0
390.0
374.0
406.0
437.0
464.0
489.0
487.0
485.0
463.0
444.0
435.0
344.0
264.0
382.0
637.0
764.0
639.0
498.0
466.0
445.0
447.0
431.0
421.0
421.0
418.0
420.0
418.0
416.0
402.0
400.0
396.0
380.0
352.0
329.0
312.0
299.0
307.0
311.0
309.0
320.0
368.0
423.0
447.0
478.0
497.0
498.0
498.0
477.0
470.0
461.0
463.0
460.0
444.0
437.0
439.0
444.0
449.0
450.0
444.0
434.0
424.0
428.0
433.0
435.0
450.0
472.0
468.0
475.0
474.0
478.0
480.0
470.0
472.0
466.0
462.0
442.0
315.0
271.0
476.0
744.0
786.0
611.0
503.0
479.0
462.0
457.0
452.0
442.0
442.0
434.0
401.0
369.0
379.0
392.0
404.0
403.0
383.0
361.0
345.0
328.0
303.0
300.0
316.0
338.0
365.0
404.0
446.0
473.0
475.0
469.0
473.0
471.0
471.0
471.0
463.0
457.0
454.0
448.0
440.0
438.0
438.0
431.0
429.0
430.0
424.0
405.0
405.0
417.0
412.0
416.0
440.0
455.0
457.0
442.0
460.0
463.0
477.0
482.0
464.0
455.0
446.0
355.0
245.0
315.0
621.0
808.0
734.0
564.0
497.0
480.0
464.0
447.0
431.0
436.0
429.0
419.0
401.0
406.0
417.0
420.0
409.0
398.0
370.0
344.0
335.0
328.0
316.0
320.0
332.0
359.0
405.0
443.0
464.0
485.0
498.0
513.0
512.0
515.0
508.0
495.0
496.0
495.0
483.0
467.0
463.0
443.0
443.0
446.0
432.0
412.0
417.0
414.0
442.0
455.0
452.0
455.0
457.0
473.0
472.0
492.0
499.0
473.0
474.0
467.0
458.0
466.0
450.0
354.0
249.0
367.0
679.0
824.0
671.0
504.0
466.0
455.0
452.0
432.0
426.0
423.0
421.0
418.0
414.0
407.0
407.0
400.0
388.0
374.0
355.0
322.0
293.0
290.0
283.0
282.0
299.0
332.0
373.0
421.0
452.0
469.0
472.0
464.0
463.0
478.0
495.0
490.0
485.0
480.0
470.0
464.0
455.0
458.0
458.0
446.0
449.0
426.0
432.0
422.0
416.0
419.0
419.0
421.0
442.0
449.0
465.0
460.0
465.0
478.0
473.0
476.0
481.0
479.0
466.0
367.0
250.0
340.0
645.0
809.0
689.0
516.0
464.0
441.0
435.0
430.0
419.0
420.0
425.0
408.0
408.0
409.0
388.0
381.0
377.0
361.0
336.0
292.0
271.0
256.0
267.0
271.0
291.0
335.0
378.0
400.0
436.0
460.0
485.0
466.0
466.0
469.0
458.0
447.0
443.0
441.0
439.0
443.0
448.0
446.0
433.0
428.0
424.0
420.0
412.0
416.0
403.0
381.0
388.0
404.0
403.0
413.0
438.0
444.0
448.0
451.0
446.0
460.0
460.0
456.0
457.0
458.0
442.0
348.0
246.0
359.0
669.0
794.0
665.0
510.0
463.0
440.0
435.0
419.0
439.0
435.0
416.0
418.0
428.0
427.0
433.0
423.0
409.0
399.0
376.0
353.0
331.0
326.0
310.0
308.0
317.0
334.0
351.0
390.0
434.0
449.0
478.0
492.0
498.0
496.0
486.0
478.0
482.0
492.0
494.0
487.0
481.0
480.0
474.0
475.0
467.0
461.0
454.0
450.0
443.0
412.0
399.0
415.0
414.0
422.0
444.0
484.0
489.0
502.0
507.0
499.0
488.0
497.0
492.0
500.0
489.0
403.0
264.0
320.0
632.0
845.0
755.0
568.0
517.0
480.0
474.0
477.0
472.0
461.0
447.0
446.0
440.0
435.0
437.0
423.0
413.0
406.0
368.0
347.0
329.0
309.0
306.0
302.0
317.0
344.0
380.0
428.0
471.0
480.0
493.0
502.0
503.0
502.0
493.0
490.0
489.0
469.0
459.0
449.0
431.0
424.0
436.0
452.0
465.0
457.0
439.0
409.0
404.0
396.0
420.0
437.0
440.0
438.0
463.0
466.0
452.0
441.0
444.0
450.0
459.0
463.0
459.0
450.0
430.0
318.0
221.0
342.0
659.0
803.0
652.0
491.0
443.0
430.0
417.0
418.0
407.0
400.0
387.0
386.0
385.0
378.0
372.0
359.0
345.0
323.0
313.0
305.0
290.0
281.0
291.0
305.0
304.0
321.0
357.0
388.0
417.0
428.0
424.0
439.0
455.0
463.0
468.0
473.0
478.0
472.0
460.0
456.0
446.0
450.0
441.0
439.0
451.0
456.0
460.0
461.0
453.0
447.0
448.0
422.0
428.0
428.0
426.0
436.0
454.0
456.0
462.0
472.0
469.0
472.0
480.0
473.0
460.0
439.0
415.0
306.0
248.0
466.0
769.0
814.0
631.0
513.0
476.0
456.0
454.0
450.0
464.0
465.0
465.0
449.0
439.0
438.0
424.0
411.0
403.0
377.0
356.0
340.0
320.0
308.0
304.0
309.0
321.0
346.0
398.0
431.0
459.0
480.0
504.0
506.0
513.0
509.0
503.0
494.0
499.0
501.0
488.0
481.0
486.0
489.0
479.0
483.0
485.0
476.0
470.0
474.0
463.0
452.0
443.0
463.0
459.0
450.0
469.0
495.0
503.0
496.0
500.0
508.0
508.0
504.0
499.0
497.0
487.0
454.0
304.0
249.0
510.0
801.0
819.0
624.0
506.0
495.0
481.0
463.0
456.0
453.0
454.0
442.0
442.0
438.0
432.0
428.0
428.0
390.0
366.0
360.0
328.0
306.0
307.0
304.0
298.0
323.0
350.0
396.0
427.0
458.0
484.0
501.0
505.0
502.0
493.0
504.0
497.0
484.0
478.0
460.0
453.0
453.0
458.0
447.0
448.0
449.0
451.0
453.0
438.0
425.0
423.0
415.0
403.0
412.0
402.0
405.0
416.0
440.0
439.0
450.0
462.0
453.0
467.0
457.0
447.0
444.0
448.0
423.0
285.0
196.0
370.0
714.0
809.0
622.0
467.0
437.0
413.0
417.0
401.0
415.0
404.0
378.0
391.0
392.0
379.0
391.0
366.0
360.0
345.0
323.0
320.0
280.0
290.0
269.0
284.0
295.0
319.0
360.0
413.0
452.0
437.0
466.0
508.0
473.0
472.0
492.0
472.0
468.0
460.0
451.0
456.0
454.0
454.0
454.0
438.0
443.0
455.0
444.0
449.0
445.0
443.0
441.0
435.0
424.0
410.0
423.0
424.0
427.0
441.0
448.0
458.0
466.0
466.0
470.0
473.0
478.0
467.0
463.0
459.0
392.0
251.0
241.0
549.0
803.0
774.0
567.0
482.0
467.0
448.0
443.0
437.0
441.0
425.0
426.0
427.0
425.0
420.0
405.0
399.0
392.0
368.0
346.0
336.0
306.0
305.0
315.0
313.0
340.0
381.0
414.0
451.0
473.0
496.0
504.0
502.0
506.0
505.0
499.0
494.0
484.0
483.0
476.0
462.0
460.0
468.0
467.0
465.0
468.0
476.0
468.0
478.0
471.0
465.0
455.0
461.0
439.0
429.0
456.0
453.0
452.0
464.0
481.0
483.0
488.0
496.0
499.0
500.0
491.0
492.0
488.0
486.0
411.0
257.0
277.0
609.0
847.0
766.0
571.0
504.0
477.0
461.0
458.0
457.0
448.0
440.0
440.0
437.0
425.0
419.0
418.0
405.0
392.0
371.0
346.0
323.0
308.0
303.0
299.0
309.0
325.0
362.0
402.0
437.0
463.0
483.0
487.0
487.0
494.0
492.0
475.0
479.0
466.0
457.0
454.0
448.0
448.0
445.0
444.0
445.0
441.0
445.0
443.0
442.0
440.0
430.0
423.0
422.0
415.0
397.0
409.0
408.0
412.0
417.0
433.0
439.0
439.0
446.0
448.0
438.0
447.0
449.0
442.0
439.0
417.0
325.0
228.0
339.0
664.0
806.0
660.0
484.0
446.0
424.0
421.0
416.0
409.0
416.0
404.0
404.0
404.0
397.0
390.0
388.0
376.0
364.0
342.0
323.0
307.0
294.0
295.0
297.0
302.0
327.0
363.0
398.0
424.0
446.0
464.0
475.0
463.0
472.0
471.0
467.0
465.0
462.0
455.0
456.0
445.0
444.0
449.0
452.0
447.0
451.0
458.0
458.0
466.0
460.0
455.0
465.0
462.0
458.0
451.0
449.0
447.0
440.0
426.0
435.0
440.0
444.0
462.0
471.0
473.0
481.0
478.0
484.0
484.0
492.0
495.0
492.0
469.0
387.0
275.0
339.0
663.0
850.0
749.0
565.0
502.0
482.0
479.0
468.0
460.0
458.0
452.0
452.0
457.0
450.0
433.0
429.0
420.0
404.0
384.0
366.0
343.0
337.0
326.0
328.0
329.0
348.0
388.0
428.0
460.0
490.0
503.0
509.0
511.0
508.0
512.0
510.0
496.0
491.0
485.0
479.0
477.0
472.0
472.0
478.0
478.0
479.0
480.0
489.0
482.0
486.0
483.0
486.0
481.0
479.0
481.0
478.0
466.0
449.0
448.0
455.0
448.0
454.0
473.0
489.0
483.0
484.0
481.0
486.0
486.0
485.0
480.0
476.0
466.0
424.0
285.0
259.0
532.0
802.0
788.0
585.0
484.0
462.0
442.0
440.0
432.0
427.0
422.0
416.0
409.0
406.0
396.0
395.0
382.0
367.0
353.0
336.0
316.0
299.0
288.0
291.0
295.0
301.0
332.0
365.0
400.0
430.0
447.0
465.0
461.0
464.0
470.0
466.0
456.0
448.0
442.0
436.0
427.0
431.0
427.0
439.0
442.0
443.0
443.0
434.0
436.0
444.0
442.0
445.0
445.0
447.0
442.0
439.0
431.0
431.0
423.0
425.0
409.0
400.0
405.0
403.0
413.0
431.0
443.0
443.0
435.0
451.0
460.0
459.0
455.0
456.0
449.0
447.0
382.0
263.0
297.0
579.0
785.0
728.0
542.0
467.0
448.0
436.0
429.0
433.0
428.0
425.0
422.0
420.0
421.0
415.0
409.0
402.0
390.0
380.0
357.0
333.0
317.0
318.0
327.0
327.0
333.0
365.0
401.0
430.0
453.0
478.0
485.0
491.0
494.0
494.0
483.0
484.0
477.0
481.0
470.0
465.0
469.0
464.0
464.0
472.0
476.0
475.0
477.0
476.0
477.0
480.0
476.0
485.0
480.0
483.0
476.0
466.0
470.0
475.0
442.0
452.0
456.0
465.0
464.0
476.0
505.0
510.0
506.0
506.0
512.0
516.0
512.0
513.0
506.0
502.0
444.0
311.0
327.0
627.0
859.0
787.0
584.0
518.0
505.0
485.0
478.0
482.0
474.0
465.0
448.0
444.0
444.0
449.0
441.0
429.0
404.0
380.0
367.0
337.0
324.0
319.0
309.0
321.0
341.0
383.0
426.0
448.0
467.0
486.0
503.0
501.0
490.0
492.0
487.0
471.0
465.0
468.0
461.0
459.0
446.0
446.0
449.0
451.0
452.0
457.0
444.0
454.0
452.0
435.0
427.0
432.0
440.0
418.0
397.0
423.0
416.0
410.0
430.0
453.0
452.0
444.0
447.0
452.0
455.0
452.0
457.0
458.0
438.0
427.0
336.0
257.0
398.0
695.0
788.0
625.0
481.0
449.0
426.0
428.0
416.0
412.0
418.0
410.0
402.0
402.0
397.0
396.0
380.0
372.0
360.0
347.0
324.0
310.0
304.0
302.0
312.0
322.0
341.0
385.0
414.0
436.0
466.0
471.0
479.0
485.0
474.0
475.0
467.0
462.0
465.0
456.0
451.0
455.0
460.0
459.0
463.0
461.0
466.0
473.0
470.0
470.0
474.0
474.0
473.0
472.0
472.0
467.0
459.0
455.0
449.0
448.0
453.0
459.0
461.0
482.0
492.0
498.0
498.0
514.0
506.0
509.0
509.0
510.0
504.0
499.0
446.0
323.0
331.0
618.0
862.0
795.0
604.0
523.0
501.0
487.0
488.0
481.0
475.0
468.0
455.0
457.0
451.0
446.0
440.0
437.0
414.0
402.0
384.0
361.0
341.0
336.0
338.0
343.0
356.0
396.0
437.0
466.0
494.0
516.0
513.0
520.0
519.0
518.0
518.0
499.0
496.0
491.0
481.0
480.0
471.0
479.0
480.0
487.0
486.0
492.0
477.0
468.0
469.0
452.0
449.0
451.0
422.0
430.0
437.0
442.0
440.0
467.0
467.0
475.0
479.0
478.0
470.0
466.0
466.0
466.0
468.0
463.0
407.0
296.0
258.0
492.0
742.0
760.0
561.0
453.0
423.0
401.0
398.0
403.0
401.0
393.0
389.0
393.0
384.0
385.0
384.0
383.0
367.0
352.0
340.0
321.0
311.0
311.0
305.0
306.0
319.0
354.0
392.0
431.0
444.0
465.0
470.0
480.0
483.0
481.0
470.0
467.0
464.0
463.0
463.0
460.0
461.0
450.0
451.0
471.0
471.0
455.0
415.0
416.0
415.0
450.0
483.0
481.0
477.0
452.0
458.0
477.0
476.0
489.0
497.0
511.0
516.0
516.0
512.0
514.0
510.0
509.0
500.0
509.0
497.0
468.0
335.0
297.0
562.0
824.0
812.0
617.0
513.0
496.0
486.0
483.0
470.0
464.0
461.0
464.0
448.0
436.0
388.0
347.0
351.0
386.0
386.0
367.0
359.0
344.0
326.0
325.0
327.0
312.0
270.0
316.0
375.0
386.0
402.0
413.0
478.0
502.0
490.0
491.0
484.0
483.0
476.0
470.0
476.0
467.0
467.0
477.0
477.0
480.0
479.0
470.0
460.0
465.0
464.0
459.0
451.0
442.0
453.0
459.0
450.0
463.0
487.0
490.0
489.0
496.0
490.0
499.0
502.0
503.0
493.0
493.0
488.0
425.0
288.0
300.0
591.0
833.0
765.0
561.0
494.0
470.0
464.0
457.0
462.0
454.0
428.0
427.0
425.0
416.0
407.0
393.0
377.0
354.0
350.0
327.0
297.0
286.0
283.0
289.0
293.0
315.0
335.0
389.0
425.0
453.0
468.0
465.0
468.0
459.0
455.0
452.0
455.0
480.0
479.0
458.0
453.0
455.0
458.0
458.0
452.0
446.0
443.0
443.0
449.0
453.0
435.0
428.0
415.0
414.0
395.0
403.0
413.0
416.0
424.0
439.0
443.0
439.0
430.0
443.0
449.0
454.0
456.0
451.0
450.0
447.0
408.0
295.0
258.0
475.0
743.0
766.0
592.0
473.0
440.0
426.0
419.0
421.0
422.0
420.0
417.0
402.0
399.0
392.0
390.0
374.0
323.0
289.0
280.0
255.0
233.0
247.0
241.0
233.0
252.0
303.0
348.0
391.0
434.0
467.0
477.0
487.0
451.0
412.0
415.0
423.0
438.0
445.0
448.0
457.0
448.0
432.0
433.0
435.0
437.0
443.0
449.0
455.0
456.0
448.0
455.0
482.0
475.0
450.0
452.0
442.0
428.0
441.0
450.0
476.0
504.0
509.0
498.0
482.0
509.0
514.0
486.0
458.0
454.0
455.0
352.0
288.0
509.0
787.0
855.0
667.0
544.0
516.0
483.0
483.0
472.0
460.0
470.0
475.0
465.0
453.0
453.0
439.0
425.0
426.0
419.0
389.0
368.0
357.0
336.0
327.0
341.0
363.0
383.0
440.0
468.0
471.0
497.0
504.0
511.0
525.0
514.0
501.0
487.0
470.0
444.0
438.0
437.0
433.0
435.0
433.0
440.0
443.0
449.0
453.0
442.0
452.0
442.0
408.0
416.0
421.0
428.0
442.0
468.0
482.0
482.0
484.0
472.0
489.0
485.0
473.0
485.0
476.0
478.0
441.0
337.0
242.0
369.0
677.0
786.0
640.0
481.0
435.0
416.0
387.0
390.0
372.0
413.0
417.0
417.0
416.0
394.0
393.0
374.0
355.0
338.0
314.0
295.0
260.0
250.0
258.0
259.0
291.0
307.0
335.0
390.0
406.0
430.0
454.0
469.0
473.0
483.0
500.0
498.0
475.0
471.0
473.0
478.0
465.0
454.0
460.0
449.0
447.0
427.0
424.0
425.0
429.0
419.0
429.0
448.0
451.0
441.0
455.0
467.0
459.0
471.0
480.0
465.0
468.0
475.0
482.0
473.0
472.0
469.0
401.0
271.0
310.0
590.0
791.0
735.0
565.0
491.0
484.0
471.0
466.0
461.0
448.0
424.0
415.0
439.0
446.0
451.0
429.0
411.0
392.0
372.0
335.0
321.0
315.0
279.0
269.0
292.0
326.0
368.0
417.0
479.0
516.0
540.0
544.0
541.0
536.0
537.0
529.0
509.0
508.0
495.0
489.0
482.0
476.0
480.0
479.0
472.0
458.0
444.0
451.0
440.0
401.0
416.0
444.0
435.0
428.0
444.0
444.0
434.0
430.0
449.0
474.0
478.0
478.0
479.0
469.0
466.0
454.0
342.0
241.0
411.0
731.0
863.0
672.0
519.0
494.0
462.0
449.0
453.0
421.0
402.0
390.0
409.0
427.0
402.0
395.0
373.0
363.0
355.0
325.0
306.0
280.0
261.0
268.0
281.0
304.0
356.0
399.0
438.0
466.0
477.0
483.0
493.0
501.0
492.0
492.0
482.0
473.0
459.0
458.0
455.0
476.0
430.0
409.0
421.0
390.0
384.0
390.0
374.0
387.0
403.0
402.0
407.0
419.0
430.0
432.0
434.0
443.0
448.0
439.0
451.0
455.0
452.0
460.0
460.0
391.0
246.0
266.0
598.0
808.0
718.0
555.0
500.0
460.0
444.0
424.0
380.0
368.0
358.0
364.0
404.0
385.0
357.0
334.0
362.0
339.0
297.0
300.0
281.0
263.0
283.0
281.0
282.0
335.0
393.0
439.0
469.0
471.0
490.0
491.0
482.0
479.0
487.0
484.0
473.0
468.0
473.0
453.0
441.0
452.0
446.0
425.0
421.0
418.0
402.0
393.0
410.0
410.0
417.0
429.0
453.0
458.0
457.0
463.0
464.0
464.0
471.0
469.0
483.0
476.0
482.0
434.0
291.0
220.0
462.0
771.0
801.0
619.0
518.0
501.0
475.0
449.0
448.0
412.0
418.0
434.0
459.0
476.0
466.0
435.0
412.0
384.0
354.0
320.0
308.0
304.0
300.0
316.0
328.0
352.0
392.0
430.0
471.0
490.0
512.0
516.0
515.0
513.0
508.0
502.0
503.0
504.0
476.0
468.0
472.0
448.0
448.0
460.0
430.0
424.0
418.0
400.0
415.0
418.0
406.0
415.0
432.0
443.0
450.0
446.0
444.0
437.0
447.0
444.0
437.0
435.0
441.0
426.0
300.0
182.0
344.0
672.0
791.0
648.0
492.0
444.0
424.0
413.0
402.0
384.0
392.0
386.0
387.0
389.0
381.0
376.0
367.0
363.0
346.0
326.0
305.0
296.0
289.0
281.0
282.0
301.0
338.0
377.0
400.0
420.0
446.0
452.0
450.0
453.0
451.0
449.0
441.0
437.0
426.0
417.0
418.0
415.0
421.0
423.0
424.0
421.0
421.0
416.0
411.0
399.0
398.0
411.0
409.0
414.0
433.0
452.0
448.0
455.0
458.0
465.0
482.0
492.0
482.0
464.0
462.0
449.0
394.0
256.0
254.0
556.0
771.0
717.0
535.0
446.0
437.0
434.0
449.0
453.0
443.0
432.0
437.0
431.0
430.0
414.0
410.0
400.0
388.0
374.0
359.0
336.0
322.0
328.0
317.0
322.0
349.0
386.0
432.0
463.0
470.0
494.0
493.0
491.0
495.0
493.0
483.0
471.0
467.0
453.0
454.0
460.0
456.0
466.0
476.0
461.0
442.0
430.0
437.0
442.0
422.0
423.0
431.0
434.0
438.0
456.0
472.0
476.0
480.0
475.0
488.0
497.0
474.0
470.0
473.0
466.0
452.0
363.0
226.0
269.0
589.0
826.0
731.0
511.0
440.0
405.0
400.0
399.0
404.0
376.0
366.0
388.0
387.0
380.0
391.0
367.0
361.0
351.0
337.0
316.0
299.0
298.0
294.0
289.0
292.0
322.0
376.0
406.0
437.0
453.0
448.0
464.0
466.0
471.0
457.0
440.0
448.0
433.0
427.0
423.0
416.0
425.0
419.0
425.0
420.0
424.0
428.0
419.0
414.0
408.0
400.0
382.0
399.0
408.0
409.0
416.0
433.0
441.0
436.0
448.0
459.0
461.0
461.0
471.0
471.0
469.0
465.0
439.0
301.0
237.0
480.0
762.0
771.0
600.0
490.0
464.0
427.0
410.0
397.0
411.0
429.0
430.0
421.0
410.0
399.0
407.0
391.0
371.0
364.0
347.0
325.0
300.0
297.0
312.0
318.0
332.0
375.0
413.0
456.0
483.0
490.0
498.0
500.0
514.0
500.0
485.0
491.0
478.0
467.0
463.0
461.0
457.0
453.0
447.0
448.0
455.0
462.0
455.0
455.0
459.0
444.0
422.0
439.0
439.0
441.0
451.0
478.0
480.0
478.0
479.0
480.0
484.0
482.0
475.0
476.0
481.0
476.0
450.0
329.0
242.0
440.0
759.0
819.0
634.0
495.0
459.0
448.0
440.0
420.0
417.0
415.0
393.0
368.0
355.0
361.0
363.0
358.0
355.0
314.0
259.0
256.0
274.0
258.0
257.0
294.0
305.0
311.0
355.0
397.0
427.0
456.0
474.0
480.0
475.0
467.0
459.0
457.0
444.0
432.0
435.0
441.0
433.0
424.0
424.0
420.0
419.0
412.0
413.0
414.0
405.0
387.0
397.0
387.0
367.0
381.0
386.0
394.0
408.0
429.0
435.0
439.0
438.0
435.0
440.0
447.0
448.0
446.0
448.0
438.0
401.0
279.0
283.0
561.0
798.0
762.0
583.0
484.0
467.0
459.0
448.0
441.0
412.0
414.0
418.0
402.0
407.0
410.0
425.0
403.0
381.0
371.0
337.0
311.0
301.0
293.0
290.0
302.0
334.0
371.0
405.0
440.0
465.0
475.0
484.0
498.0
493.0
494.0
479.0
480.0
476.0
463.0
459.0
457.0
463.0
464.0
454.0
464.0
464.0
469.0
461.0
457.0
444.0
447.0
430.0
427.0
451.0
453.0
442.0
459.0
459.0
468.0
477.0
480.0
471.0
467.0
476.0
479.0
475.0
480.0
479.0
403.0
285.0
335.0
626.0
820.0
724.0
545.0
483.0
461.0
448.0
446.0
443.0
437.0
428.0
421.0
419.0
417.0
401.0
390.0
377.0
363.0
343.0
307.0
299.0
285.0
284.0
288.0
300.0
331.0
369.0
405.0
432.0
464.0
459.0
458.0
476.0
480.0
493.0
484.0
460.0
460.0
455.0
451.0
443.0
440.0
440.0
442.0
441.0
437.0
434.0
436.0
431.0
426.0
423.0
404.0
419.0
416.0
416.0
428.0
451.0
456.0
456.0
461.0
461.0
451.0
446.0
458.0
460.0
447.0
444.0
422.0
298.0
217.0
418.0
717.0
775.0
595.0
474.0
452.0
427.0
412.0
410.0
408.0
397.0
386.0
378.0
378.0
373.0
360.0
352.0
336.0
314.0
305.0
291.0
283.0
275.0
290.0
296.0
307.0
344.0
381.0
408.0
432.0
437.0
449.0
446.0
450.0
457.0
457.0
447.0
457.0
448.0
444.0
450.0
446.0
440.0
446.0
447.0
447.0
444.0
451.0
437.0
440.0
435.0
435.0
419.0
429.0
439.0
443.0
442.0
461.0
475.0
483.0
483.0
491.0
493.0
487.0
493.0
490.0
493.0
497.0
483.0
377.0
263.0
395.0
715.0
845.0
696.0
551.0
498.0
484.0
483.0
471.0
463.0
456.0
462.0
451.0
447.0
452.0
434.0
416.0
413.0
394.0
360.0
332.0
324.0
311.0
310.0
319.0
339.0
381.0
410.0
455.0
492.0
508.0
513.0
515.0
510.0
511.0
499.0
488.0
483.0
479.0
467.0
458.0
463.0
461.0
461.0
463.0
465.0
463.0
464.0
455.0
444.0
447.0
440.0
423.0
426.0
434.0
437.0
440.0
459.0
470.0
470.0
480.0
479.0
483.0
474.0
477.0
478.0
470.0
468.0
447.0
317.0
234.0
435.0
746.0
815.0
635.0
496.0
463.0
434.0
424.0
421.0
411.0
405.0
399.0
394.0
396.0
379.0
358.0
349.0
334.0
317.0
298.0
291.0
272.0
270.0
264.0
272.0
291.0
328.0
380.0
416.0
447.0
464.0
465.0
471.0
469.0
471.0
462.0
472.0
467.0
461.0
456.0
464.0
456.0
441.0
444.0
443.0
444.0
449.0
441.0
443.0
449.0
440.0
440.0
434.0
411.0
427.0
433.0
427.0
433.0
457.0
449.0
456.0
458.0
449.0
448.0
444.0
435.0
435.0
441.0
432.0
384.0
257.0
243.0
493.0
750.0
747.0
543.0
450.0
425.0
400.0
403.0
400.0
390.0
387.0
380.0
380.0
373.0
363.0
359.0
342.0
326.0
309.0
282.0
267.0
262.0
265.0
270.0
275.0
301.0
335.0
370.0
403.0
428.0
446.0
460.0
461.0
454.0
447.0
448.0
440.0
435.0
431.0
428.0
429.0
427.0
432.0
426.0
423.0
425.0
429.0
436.0
432.0
427.0
425.0
414.0
415.0
414.0
403.0
392.0
405.0
413.0
414.0
429.0
443.0
444.0
454.0
463.0
465.0
456.0
459.0
462.0
451.0
455.0
454.0
397.0
273.0
273.0
537.0
791.0
785.0
588.0
491.0
474.0
461.0
446.0
444.0
435.0
437.0
435.0
431.0
426.0
421.0
411.0
402.0
387.0
370.0
339.0
317.0
319.0
304.0
308.0
322.0
339.0
381.0
420.0
457.0
478.0
489.0
506.0
504.0
501.0
496.0
497.0
493.0
480.0
478.0
469.0
464.0
462.0
463.0
463.0
475.0
469.0
463.0
468.0
468.0
462.0
451.0
455.0
452.0
430.0
417.0
435.0
428.0
422.0
440.0
453.0
457.0
470.0
475.0
463.0
462.0
466.0
455.0
457.0
456.0
443.0
387.0
244.0
253.0
556.0
787.0
740.0
545.0
459.0
439.0
415.0
406.0
404.0
402.0
391.0
389.0
383.0
374.0
371.0
370.0
342.0
319.0
309.0
285.0
267.0
263.0
259.0
266.0
271.0
288.0
335.0
373.0
406.0
422.0
440.0
446.0
449.0
451.0
448.0
437.0
433.0
432.0
431.0
417.0
416.0
415.0
414.0
415.0
420.0
425.0
423.0
425.0
430.0
432.0
430.0
418.0
415.0
412.0
403.0
384.0
386.0
402.0
399.0
416.0
434.0
446.0
456.0
452.0
471.0
471.0
458.0
453.0
459.0
474.0
463.0
433.0
326.0
242.0
383.0
721.0
844.0
693.0
553.0
504.0
470.0
494.0
459.0
448.0
446.0
429.0
427.0
422.0
421.0
412.0
404.0
401.0
377.0
343.0
332.0
316.0
296.0
291.0
294.0
307.0
339.0
386.0
417.0
444.0
464.0
471.0
474.0
465.0
467.0
466.0
458.0
449.0
439.0
436.0
432.0
431.0
432.0
427.0
430.0
432.0
428.0
424.0
429.0
430.0
431.0
425.0
416.0
416.0
409.0
402.0
386.0
400.0
400.0
395.0
406.0
433.0
443.0
440.0
440.0
447.0
449.0
448.0
451.0
451.0
435.0
431.0
395.0
260.0
223.0
446.0
731.0
759.0
564.0
467.0
437.0
418.0
422.0
416.0
408.0
398.0
396.0
394.0
390.0
380.0
369.0
362.0
346.0
328.0
309.0
283.0
274.0
279.0
272.0
276.0
298.0
332.0
379.0
403.0
427.0
441.0
452.0
458.0
456.0
456.0
446.0
446.0
440.0
433.0
432.0
431.0
437.0
424.0
418.0
427.0
428.0
430.0
429.0
429.0
431.0
431.0
431.0
432.0
430.0
411.0
414.0
411.0
401.0
384.0
396.0
399.0
406.0
410.0
425.0
436.0
434.0
435.0
441.0
448.0
433.0
446.0
443.0
431.0
424.0
376.0
271.0
279.0
544.0
774.0
711.0
523.0
444.0
414.0
412.0
407.0
404.0
405.0
406.0
396.0
387.0
385.0
375.0
366.0
364.0
346.0
326.0
311.0
292.0
282.0
271.0
274.0
286.0
311.0
347.0
381.0
406.0
433.0
443.0
447.0
456.0
455.0
457.0
455.0
445.0
445.0
445.0
443.0
434.0
438.0
436.0
429.0
434.0
444.0
441.0
443.0
444.0
446.0
448.0
448.0
447.0
450.0
446.0
445.0
441.0
437.0
442.0
435.0
418.0
436.0
442.0
437.0
455.0
476.0
477.0
481.0
493.0
499.0
492.0
495.0
498.0
496.0
492.0
480.0
420.0
336.0
380.0
642.0
816.0
746.0
562.0
502.0
489.0
476.0
466.0
464.0
464.0
455.0
448.0
448.0
447.0
435.0
424.0
419.0
401.0
381.0
361.0
343.0
333.0
329.0
332.0
337.0
359.0
403.0
440.0
469.0
490.0
501.0
506.0
510.0
514.0
510.0
495.0
491.0
490.0
486.0
480.0
482.0
479.0
478.0
483.0
484.0
480.0
486.0
493.0
480.0
485.0
484.0
488.0
490.0
480.0
479.0
475.0
464.0
465.0
459.0
445.0
444.0
455.0
466.0
446.0
461.0
476.0
473.0
488.0
486.0
489.0
487.0
474.0
482.0
495.0
476.0
453.0
352.0
275.0
407.0
700.0
794.0
620.0
472.0
447.0
435.0
426.0
413.0
402.0
404.0
409.0
408.0
370.0
327.0
332.0
327.0
315.0
294.0
277.0
256.0
235.0
236.0
239.0
245.0
271.0
321.0
385.0
415.0
445.0
466.0
468.0
467.0
476.0
474.0
463.0
462.0
459.0
456.0
446.0
431.0
442.0
441.0
436.0
437.0
444.0
451.0
449.0
451.0
446.0
453.0
450.0
448.0
447.0
435.0
434.0
432.0
421.0
408.0
412.0
418.0
421.0
428.0
453.0
446.0
449.0
457.0
457.0
455.0
455.0
450.0
448.0
449.0
444.0
399.0
279.0
280.0
516.0
757.0
753.0
564.0
456.0
436.0
430.0
415.0
407.0
403.0
400.0
400.0
392.0
381.0
379.0
371.0
360.0
346.0
323.0
311.0
287.0
271.0
268.0
272.0
278.0
299.0
338.0
373.0
407.0
431.0
451.0
455.0
454.0
461.0
462.0
451.0
446.0
447.0
445.0
438.0
437.0
436.0
438.0
435.0
432.0
434.0
436.0
436.0
440.0
435.0
439.0
438.0
437.0
436.0
435.0
429.0
427.0
420.0
407.0
393.0
401.0
409.0
413.0
432.0
441.0
444.0
453.0
459.0
451.0
456.0
459.0
461.0
462.0
457.0
448.0
387.0
285.0
316.0
590.0
782.0
728.0
541.0
457.0
443.0
434.0
425.0
426.0
412.0
408.0
413.0
405.0
400.0
394.0
399.0
386.0
364.0
344.0
327.0
305.0
287.0
291.0
291.0
301.0
327.0
376.0
418.0
443.0
455.0
479.0
487.0
485.0
491.0
490.0
484.0
469.0
469.0
471.0
465.0
460.0
459.0
457.0
456.0
464.0
465.0
463.0
465.0
462.0
469.0
465.0
464.0
466.0
465.0
467.0
470.0
461.0
451.0
451.0
444.0
436.0
431.0
433.0
438.0
441.0
453.0
475.0
477.0
482.0
483.0
490.0
478.0
476.0
480.0
479.0
476.0
463.0
356.0
270.0
419.0
717.0
827.0
674.0
511.0
475.0
455.0
446.0
448.0
438.0
431.0
420.0
416.0
411.0
404.0
404.0
391.0
372.0
358.0
328.0
309.0
289.0
278.0
282.0
281.0
305.0
334.0
383.0
425.0
445.0
471.0
482.0
490.0
489.0
494.0
485.0
491.0
487.0
468.0
463.0
459.0
451.0
439.0
436.0
438.0
450.0
477.0
517.0
561.0
562.0
492.0
446.0
354.0
338.0
354.0
332.0
307.0
271.0
312.0
332.0
323.0
286.0
319.0
382.0
417.0
420.0
412.0
463.0
420.0
312.0
330.0
376.0
359.0
348.0
350.0
300.0
209.0
316.0
587.0
703.0
588.0
455.0
420.0
405.0
430.0
425.0
379.0
380.0
390.0
373.0
372.0
377.0
355.0
346.0
343.0
331.0
311.0
288.0
265.0
285.0
281.0
281.0
283.0
294.0
358.0
392.0
418.0
435.0
441.0
438.0
436.0
445.0
430.0
443.0
437.0
440.0
423.0
417.0
418.0
405.0
417.0
428.0
395.0
408.0
428.0
453.0
410.0
390.0
426.0
414.0
397.0
408.0
403.0
398.0
377.0
372.0
397.0
410.0
406.0
422.0
418.0
418.0
424.0
431.0
428.0
436.0
434.0
436.0
449.0
440.0
413.0
318.0
271.0
435.0
700.0
746.0
569.0
415.0
376.0
363.0
365.0
371.0
360.0
363.0
372.0
372.0
348.0
367.0
348.0
341.0
344.0
311.0
297.0
282.0
265.0
252.0
243.0
270.0
309.0
309.0
361.0
408.0
412.0
427.0
434.0
449.0
451.0
447.0
446.0
462.0
470.0
478.0
454.0
461.0
469.0
481.0
458.0
443.0
457.0
438.0
439.0
440.0
432.0
423.0
419.0
427.0
406.0
392.0
417.0
424.0
413.0
420.0
435.0
428.0
440.0
444.0
439.0
448.0
443.0
445.0
450.0
417.0
398.0
336.0
310.0
345.0
571.0
788.0
646.0
484.0
478.0
457.0
434.0
443.0
437.0
426.0
416.0
405.0
400.0
399.0
395.0
386.0
374.0
360.0
340.0
324.0
296.0
282.0
297.0
291.0
310.0
346.0
374.0
418.0
447.0
464.0
479.0
483.0
490.0
485.0
480.0
474.0
477.0
465.0
461.0
464.0
460.0
456.0
456.0
459.0
458.0
458.0
457.0
453.0
456.0
448.0
446.0
428.0
427.0
443.0
446.0
450.0
474.0
481.0
476.0
474.0
490.0
496.0
492.0
487.0
491.0
486.0
483.0
454.0
345.0
295.0
486.0
775.0
815.0
623.0
507.0
474.0
463.0
456.0
446.0
445.0
438.0
435.0
423.0
419.0
422.0
411.0
396.0
386.0
369.0
343.0
335.0
316.0
305.0
317.0
329.0
355.0
382.0
433.0
471.0
483.0
503.0
528.0
548.0
538.0
541.0
538.0
538.0
534.0
533.0
537.0
498.0
498.0
501.0
500.0
504.0
505.0
506.0
498.0
483.0
468.0
464.0
454.0
423.0
432.0
436.0
441.0
451.0
467.0
471.0
467.0
468.0
463.0
471.0
465.0
468.0
472.0
468.0
462.0
419.0
320.0
329.0
583.0
776.0
708.0
539.0
490.0
460.0
447.0
448.0
440.0
431.0
436.0
436.0
426.0
411.0
408.0
400.0
377.0
367.0
349.0
327.0
314.0
302.0
297.0
306.0
313.0
332.0
376.0
408.0
441.0
458.0
461.0
473.0
481.0
474.0
470.0
463.0
456.0
458.0
451.0
452.0
447.0
449.0
451.0
446.0
458.0
466.0
455.0
443.0
446.0
455.0
436.0
411.0
431.0
439.0
438.0
444.0
472.0
470.0
468.0
475.0
474.0
477.0
478.0
470.0
476.0
474.0
465.0
446.0
350.0
279.0
428.0
721.0
780.0
611.0
503.0
470.0
450.0
446.0
447.0
441.0
435.0
442.0
431.0
423.0
409.0
401.0
392.0
391.0
362.0
336.0
327.0
318.0
303.0
313.0
310.0
333.0
368.0
404.0
435.0
455.0
469.0
476.0
476.0
479.0
480.0
477.0
475.0
469.0
467.0
463.0
456.0
454.0
447.0
439.0
435.0
452.0
446.0
446.0
451.0
443.0
444.0
439.0
439.0
429.0
419.0
421.0
428.0
432.0
441.0
452.0
453.0
469.0
474.0
475.0
461.0
473.0
474.0
471.0
476.0
468.0
390.0
348.0
492.0
735.0
774.0
651.0
531.0
500.0
487.0
479.0
476.0
473.0
461.0
479.0
472.0
449.0
445.0
443.0
423.0
411.0
387.0
360.0
347.0
323.0
308.0
309.0
310.0
330.0
371.0
410.0
440.0
466.0
478.0
483.0
492.0
489.0
478.0
470.0
483.0
468.0
452.0
451.0
441.0
449.0
458.0
454.0
445.0
441.0
447.0
457.0
464.0
451.0
445.0
439.0
433.0
413.0
422.0
423.0
438.0
441.0
453.0
460.0
462.0
464.0
466.0
462.0
461.0
466.0
471.0
471.0
455.0
428.0
317.0
285.0
499.0
735.0
737.0
550.0
463.0
439.0
434.0
429.0
422.0
420.0
420.0
418.0
398.0
392.0
391.0
381.0
375.0
353.0
329.0
319.0
298.0
302.0
291.0
276.0
293.0
319.0
343.0
386.0
419.0
438.0
447.0
453.0
445.0
451.0
451.0
444.0
437.0
446.0
444.0
432.0
434.0
434.0
432.0
439.0
443.0
432.0
434.0
434.0
438.0
429.0
425.0
427.0
403.0
394.0
400.0
404.0
402.0
421.0
439.0
446.0
448.0
459.0
461.0
455.0
451.0
455.0
448.0
456.0
446.0
390.0
307.0
377.0
601.0
725.0
668.0
514.0
448.0
435.0
435.0
437.0
425.0
435.0
427.0
416.0
413.0
396.0
380.0
382.0
367.0
352.0
345.0
332.0
315.0
313.0
307.0
310.0
321.0
344.0
384.0
430.0
450.0
458.0
475.0
480.0
484.0
484.0
469.0
459.0
460.0
454.0
446.0
441.0
451.0
455.0
450.0
453.0
442.0
426.0
424.0
423.0
436.0
434.0
437.0
442.0
458.0
442.0
435.0
438.0
421.0
411.0
429.0
439.0
437.0
449.0
450.0
458.0
467.0
469.0
464.0
471.0
471.0
468.0
419.0
327.0
374.0
655.0
818.0
729.0
560.0
481.0
451.0
454.0
453.0
440.0
434.0
420.0
403.0
394.0
373.0
370.0
371.0
377.0
365.0
357.0
330.0
291.0
262.0
256.0
240.0
269.0
320.0
358.0
410.0
442.0
464.0
471.0
476.0
474.0
468.0
456.0
449.0
435.0
441.0
438.0
434.0
456.0
452.0
446.0
447.0
440.0
435.0
422.0
412.0
419.0
420.0
391.0
355.0
378.0
399.0
418.0
420.0
419.0
412.0
448.0
457.0
456.0
460.0
468.0
466.0
471.0
460.0
464.0
450.0
341.0
264.0
416.0
670.0
756.0
631.0
503.0
465.0
441.0
445.0
454.0
447.0
455.0
439.0
427.0
427.0
415.0
400.0
359.0
340.0
326.0
310.0
294.0
303.0
281.0
260.0
269.0
276.0
296.0
366.0
412.0
431.0
456.0
470.0
485.0
485.0
480.0
469.0
465.0
455.0
449.0
450.0
454.0
465.0
466.0
470.0
454.0
452.0
446.0
444.0
423.0
414.0
413.0
413.0
413.0
431.0
446.0
421.0
408.0
410.0
429.0
457.0
473.0
473.0
456.0
460.0
453.0
440.0
429.0
311.0
236.0
419.0
697.0
779.0
613.0
464.0
433.0
429.0
428.0
421.0
417.0
420.0
415.0
404.0
397.0
378.0
366.0
361.0
343.0
312.0
289.0
257.0
254.0
249.0
211.0
236.0
305.0
349.0
374.0
431.0
457.0
461.0
459.0
442.0
443.0
443.0
456.0
467.0
464.0
470.0
450.0
449.0
448.0
448.0
448.0
448.0
442.0
428.0
426.0
429.0
427.0
415.0
427.0
440.0
434.0
441.0
464.0
479.0
474.0
469.0
471.0
452.0
430.0
436.0
440.0
451.0
471.0
438.0
319.0
248.0
379.0
685.0
813.0
642.0
490.0
446.0
431.0
429.0
430.0
416.0
409.0
403.0
388.0
393.0
383.0
373.0
376.0
347.0
321.0
301.0
268.0
266.0
258.0
252.0
263.0
297.0
336.0
384.0
422.0
433.0
450.0
466.0
476.0
476.0
485.0
481.0
467.0
456.0
454.0
443.0
434.0
439.0
434.0
444.0
443.0
433.0
429.0
430.0
426.0
420.0
411.0
423.0
428.0
430.0
441.0
454.0
461.0
460.0
471.0
467.0
474.0
485.0
477.0
488.0
471.0
473.0
452.0
342.0
205.0
309.0
613.0
763.0
686.0
541.0
473.0
465.0
448.0
444.0
438.0
439.0
431.0
419.0
418.0
417.0
400.0
380.0
365.0
343.0
308.0
289.0
280.0
264.0
274.0
295.0
320.0
362.0
409.0
447.0
484.0
489.0
496.0
496.0
500.0
502.0
487.0
484.0
473.0
455.0
453.0
459.0
465.0
470.0
474.0
452.0
423.0
415.0
402.0
395.0
403.0
387.0
397.0
407.0
412.0
429.0
447.0
452.0
451.0
457.0
464.0
453.0
459.0
462.0
462.0
464.0
461.0
427.0
302.0
228.0
465.0
747.0
772.0
618.0
504.0
459.0
440.0
433.0
421.0
424.0
432.0
419.0
416.0
412.0
407.0
389.0
378.0
365.0
336.0
323.0
309.0
286.0
292.0
290.0
295.0
336.0
374.0
411.0
438.0
459.0
485.0
491.0
493.0
498.0
494.0
482.0
489.0
481.0
485.0
485.0
479.0
473.0
463.0
476.0
463.0
460.0
452.0
438.0
415.0
373.0
376.0
397.0
399.0
423.0
455.0
450.0
452.0
445.0
451.0
462.0
459.0
442.0
452.0
472.0
457.0
440.0
390.0
268.0
268.0
529.0
740.0
719.0
555.0
459.0
447.0
427.0
410.0
417.0
413.0
417.0
422.0
417.0
399.0
389.0
390.0
358.0
349.0
325.0
287.0
279.0
269.0
280.0
273.0
295.0
340.0
375.0
407.0
427.0
453.0
456.0
434.0
422.0
430.0
447.0
462.0
474.0
495.0
479.0
462.0
447.0
440.0
449.0
443.0
439.0
431.0
435.0
446.0
445.0
432.0
435.0
436.0
419.0
423.0
434.0
434.0
421.0
448.0
465.0
474.0
486.0
484.0
482.0
488.0
484.0
472.0
470.0
464.0
440.0
320.0
225.0
384.0
662.0
787.0
659.0
501.0
465.0
450.0
441.0
441.0
439.0
424.0
422.0
424.0
401.0
415.0
405.0
370.0
371.0
353.0
329.0
291.0
254.0
250.0
248.0
283.0
280.0
316.0
374.0
404.0
426.0
442.0
461.0
485.0
497.0
509.0
477.0
473.0
478.0
472.0
457.0
438.0
428.0
444.0
442.0
455.0
451.0
430.0
462.0
434.0
429.0
398.0
351.0
368.0
391.0
404.0
417.0
444.0
462.0
463.0
467.0
469.0
463.0
469.0
461.0
462.0
465.0
462.0
450.0
367.0
255.0
302.0
605.0
770.0
662.0
518.0
464.0
433.0
431.0
417.0
382.0
380.0
376.0
381.0
384.0
394.0
398.0
390.0
368.0
356.0
321.0
291.0
263.0
248.0
248.0
254.0
281.0
318.0
372.0
409.0
422.0
452.0
458.0
462.0
470.0
476.0
463.0
452.0
454.0
446.0
452.0
440.0
435.0
448.0
435.0
435.0
432.0
435.0
435.0
439.0
435.0
430.0
433.0
407.0
389.0
412.0
417.0
422.0
426.0
454.0
464.0
469.0
467.0
484.0
482.0
482.0
470.0
467.0
467.0
461.0
440.0
306.0
223.0
409.0
680.0
735.0
568.0
463.0
460.0
465.0
468.0
467.0
441.0
441.0
422.0
404.0
407.0
397.0
384.0
384.0
376.0
368.0
327.0
299.0
276.0
273.0
281.0
294.0
304.0
350.0
384.0
421.0
445.0
467.0
485.0
496.0
510.0
509.0
498.0
502.0
481.0
481.0
481.0
473.0
467.0
474.0
471.0
478.0
485.0
463.0
459.0
455.0
452.0
448.0
438.0
420.0
403.0
408.0
369.0
374.0
411.0
443.0
467.0
473.0
464.0
475.0
475.0
452.0
452.0
454.0
438.0
417.0
379.0
272.0
226.0
454.0
715.0
748.0
589.0
472.0
445.0
424.0
420.0
431.0
416.0
411.0
402.0
391.0
392.0
397.0
380.0
372.0
340.0
323.0
314.0
284.0
276.0
265.0
258.0
269.0
295.0
347.0
385.0
431.0
464.0
485.0
487.0
467.0
466.0
469.0
457.0
448.0
443.0
457.0
442.0
437.0
443.0
429.0
452.0
457.0
429.0
438.0
437.0
431.0
420.0
420.0
426.0
424.0
414.0
414.0
438.0
436.0
434.0
439.0
467.0
468.0
474.0
478.0
486.0
485.0
489.0
481.0
464.0
458.0
447.0
400.0
283.0
281.0
552.0
786.0
770.0
577.0
464.0
471.0
454.0
440.0
445.0
424.0
418.0
415.0
412.0
413.0
404.0
390.0
377.0
366.0
341.0
312.0
299.0
296.0
292.0
304.0
314.0
356.0
406.0
453.0
486.0
495.0
505.0
522.0
511.0
522.0
531.0
508.0
491.0
498.0
497.0
478.0
453.0
436.0
424.0
438.0
441.0
426.0
445.0
453.0
428.0
433.0
428.0
403.0
395.0
410.0
412.0
420.0
430.0
448.0
435.0
438.0
475.0
479.0
488.0
486.0
467.0
470.0
467.0
456.0
419.0
287.0
246.0
496.0
750.0
748.0
576.0
458.0
413.0
416.0
411.0
418.0
407.0
395.0
388.0
383.0
385.0
371.0
371.0
362.0
344.0
307.0
290.0
266.0
233.0
245.0
234.0
256.0
300.0
339.0
389.0
425.0
440.0
478.0
482.0
466.0
483.0
484.0
473.0
479.0
487.0
462.0
453.0
441.0
451.0
457.0
431.0
426.0
424.0
442.0
433.0
453.0
440.0
427.0
420.0
379.0
390.0
433.0
423.0
431.0
452.0
452.0
462.0
480.0
477.0
468.0
476.0
481.0
484.0
488.0
482.0
471.0
372.0
246.0
333.0
633.0
810.0
704.0
542.0
476.0
447.0
420.0
418.0
435.0
423.0
410.0
418.0
410.0
408.0
392.0
367.0
367.0
357.0
338.0
302.0
279.0
260.0
257.0
265.0
301.0
346.0
375.0
409.0
435.0
463.0
472.0
476.0
501.0
484.0
486.0
503.0
480.0
457.0
450.0
441.0
427.0
432.0
425.0
426.0
431.0
425.0
427.0
413.0
387.0
383.0
373.0
372.0
387.0
396.0
397.0
424.0
443.0
450.0
460.0
448.0
448.0
448.0
451.0
453.0
453.0
457.0
446.0
384.0
228.0
247.0
551.0
760.0
715.0
553.0
458.0
435.0
412.0
384.0
364.0
375.0
378.0
384.0
381.0
380.0
380.0
372.0
355.0
311.0
289.0
277.0
267.0
236.0
245.0
260.0
272.0
304.0
347.0
383.0
414.0
441.0
442.0
449.0
461.0
464.0
463.0
460.0
462.0
450.0
448.0
454.0
450.0
434.0
441.0
439.0
440.0
433.0
445.0
415.0
412.0
421.0
432.0
407.0
413.0
407.0
409.0
407.0
421.0
447.0
449.0
456.0
463.0
470.0
475.0
486.0
472.0
476.0
467.0
444.0
350.0
242.0
352.0
655.0
819.0
707.0
540.0
502.0
485.0
475.0
465.0
472.0
461.0
461.0
461.0
460.0
445.0
425.0
410.0
392.0
376.0
363.0
358.0
323.0
286.0
268.0
282.0
293.0
345.0
407.0
445.0
468.0
485.0
494.0
507.0
503.0
503.0
492.0
488.0
488.0
484.0
484.0
476.0
473.0
486.0
469.0
464.0
466.0
466.0
455.0
441.0
440.0
428.0
423.0
445.0
432.0
430.0
422.0
407.0
408.0
435.0
477.0
474.0
479.0
491.0
456.0
447.0
454.0
441.0
369.0
248.0
285.0
598.0
794.0
719.0
556.0
475.0
459.0
444.0
431.0
427.0
427.0
422.0
403.0
388.0
396.0
382.0
378.0
372.0
343.0
321.0
299.0
286.0
268.0
260.0
263.0
283.0
318.0
345.0
406.0
438.0
428.0
451.0
464.0
460.0
475.0
487.0
492.0
479.0
481.0
479.0
458.0
463.0
435.0
408.0
415.0
421.0
406.0
426.0
448.0
450.0
434.0
440.0
422.0
399.0
420.0
418.0
395.0
415.0
439.0
443.0
460.0
464.0
459.0
458.0
462.0
453.0
439.0
456.0
439.0
311.0
185.0
288.0
621.0
780.0
631.0
459.0
435.0
423.0
411.0
412.0
414.0
406.0
402.0
396.0
399.0
399.0
382.0
354.0
335.0
323.0
303.0
270.0
253.0
268.0
268.0
273.0
276.0
323.0
355.0
385.0
418.0
437.0
428.0
447.0
458.0
461.0
457.0
441.0
435.0
436.0
439.0
434.0
431.0
430.0
412.0
404.0
417.0
432.0
421.0
408.0
415.0
406.0
410.0
401.0
391.0
390.0
391.0
375.0
398.0
408.0
426.0
419.0
423.0
402.0
411.0
427.0
426.0
439.0
437.0
447.0
427.0
328.0
195.0
268.0
601.0
786.0
679.0
491.0
440.0
415.0
403.0
404.0
405.0
409.0
408.0
409.0
395.0
391.0
384.0
376.0
364.0
341.0
327.0
295.0
279.0
267.0
265.0
276.0
281.0
305.0
362.0
389.0
394.0
419.0
428.0
427.0
435.0
437.0
439.0
439.0
436.0
440.0
430.0
423.0
425.0
422.0
417.0
414.0
420.0
419.0
427.0
423.0
430.0
431.0
441.0
435.0
437.0
432.0
419.0
402.0
424.0
430.0
423.0
417.0
433.0
438.0
450.0
465.0
462.0
458.0
474.0
468.0
454.0
446.0
433.0
362.0
249.0
295.0
570.0
778.0
751.0
583.0
499.0
475.0
480.0
465.0
444.0
442.0
440.0
444.0
443.0
423.0
427.0
419.0
396.0
374.0
353.0
330.0
303.0
288.0
292.0
292.0
318.0
333.0
375.0
418.0
444.0
462.0
490.0
503.0
506.0
505.0
514.0
518.0
513.0
505.0
506.0
499.0
486.0
483.0
478.0
478.0
473.0
473.0
483.0
481.0
458.0
435.0
433.0
429.0
450.0
428.0
423.0
440.0
461.0
465.0
469.0
468.0
468.0
474.0
478.0
490.0
493.0
484.0
471.0
460.0
451.0
423.0
297.0
243.0
494.0
755.0
758.0
581.0
483.0
464.0
437.0
423.0
426.0
417.0
403.0
406.0
407.0
399.0
393.0
379.0
366.0
355.0
333.0
305.0
287.0
275.0
279.0
280.0
285.0
305.0
356.0
396.0
429.0
451.0
450.0
462.0
481.0
480.0
477.0
470.0
454.0
451.0
442.0
427.0
416.0
402.0
406.0
406.0
413.0
425.0
426.0
430.0
433.0
423.0
412.0
411.0
412.0
385.0
388.0
394.0
387.0
390.0
420.0
441.0
439.0
454.0
467.0
455.0
458.0
462.0
460.0
449.0
435.0
431.0
324.0
196.0
336.0
647.0
789.0
650.0
488.0
440.0
427.0
427.0
417.0
405.0
401.0
394.0
400.0
391.0
391.0
380.0
373.0
368.0
354.0
319.0
295.0
283.0
266.0
257.0
260.0
279.0
317.0
362.0
393.0
414.0
431.0
461.0
453.0
457.0
468.0
458.0
461.0
453.0
449.0
443.0
437.0
436.0
434.0
432.0
433.0
425.0
430.0
428.0
433.0
427.0
435.0
428.0
414.0
414.0
415.0
377.0
392.0
414.0
399.0
391.0
416.0
415.0
426.0
423.0
432.0
437.0
436.0
449.0
465.0
453.0
452.0
400.0
279.0
250.0
480.0
744.0
774.0
574.0
490.0
465.0
456.0
451.0
437.0
427.0
433.0
429.0
426.0
427.0
411.0
405.0
405.0
369.0
352.0
323.0
285.0
253.0
259.0
238.0
249.0
291.0
348.0
395.0
413.0
430.0
465.0
466.0
467.0
454.0
457.0
472.0
474.0
469.0
466.0
451.0
442.0
439.0
435.0
438.0
435.0
428.0
441.0
423.0
431.0
434.0
445.0
441.0
435.0
425.0
421.0
408.0
402.0
375.0
372.0
395.0
413.0
435.0
438.0
436.0
453.0
443.0
457.0
450.0
471.0
449.0
438.0
419.0
347.0
229.0
254.0
534.0
732.0
704.0
540.0
459.0
448.0
439.0
437.0
422.0
423.0
418.0
424.0
435.0
435.0
419.0
413.0
403.0
377.0
357.0
326.0
317.0
312.0
305.0
328.0
344.0
361.0
384.0
425.0
447.0
484.0
506.0
499.0
483.0
481.0
489.0
470.0
461.0
480.0
466.0
461.0
452.0
445.0
443.0
446.0
445.0
449.0
448.0
451.0
451.0
449.0
438.0
428.0
407.0
419.0
442.0
448.0
453.0
467.0
487.0
497.0
480.0
412.0
388.0
409.0
395.0
384.0
385.0
392.0
392.0
309.0
228.0
393.0
645.0
735.0
606.0
465.0
428.0
408.0
395.0
389.0
407.0
414.0
403.0
410.0
425.0
415.0
417.0
408.0
387.0
341.0
347.0
346.0
316.0
299.0
271.0
291.0
306.0
323.0
377.0
401.0
425.0
446.0
463.0
471.0
475.0
469.0
459.0
471.0
464.0
474.0
440.0
422.0
426.0
423.0
429.0
431.0
440.0
433.0
419.0
405.0
418.0
428.0
425.0
423.0
405.0
400.0
392.0
408.0
415.0
441.0
466.0
480.0
473.0
465.0
455.0
444.0
465.0
480.0
466.0
467.0
443.0
292.0
241.0
451.0
733.0
803.0
609.0
494.0
463.0
437.0
439.0
436.0
426.0
403.0
407.0
409.0
412.0
412.0
393.0
381.0
375.0
357.0
335.0
301.0
277.0
284.0
292.0
300.0
309.0
347.0
389.0
412.0
419.0
449.0
459.0
462.0
457.0
454.0
453.0
453.0
472.0
472.0
517.0
477.0
448.0
431.0
375.0
389.0
365.0
344.0
348.0
364.0
376.0
393.0
374.0
378.0
392.0
384.0
394.0
416.0
433.0
433.0
446.0
445.0
435.0
435.0
445.0
453.0
477.0
464.0
432.0
302.0
210.0
377.0
646.0
721.0
604.0
492.0
456.0
436.0
445.0
435.0
435.0
435.0
430.0
422.0
424.0
449.0
458.0
402.0
363.0
353.0
310.0
277.0
271.0
269.0
279.0
281.0
292.0
313.0
343.0
391.0
420.0
442.0
447.0
453.0
464.0
466.0
501.0
499.0
485.0
480.0
420.0
517.0
502.0
362.0
390.0
316.0
247.0
404.0
422.0
411.0
453.0
373.0
396.0
434.0
429.0
476.0
470.0
448.0
428.0
404.0
380.0
398.0
427.0
423.0
448.0
443.0
426.0
401.0
319.0
281.0
477.0
646.0
667.0
593.0
522.0
526.0
508.0
472.0
448.0
440.0
437.0
426.0
436.0
455.0
456.0
441.0
435.0
433.0
405.0
371.0
332.0
301.0
311.0
317.0
339.0
374.0
407.0
437.0
455.0
465.0
473.0
477.0
477.0
485.0
492.0
492.0
474.0
462.0
461.0
472.0
463.0
458.0
454.0
460.0
459.0
445.0
449.0
447.0
419.0
421.0
439.0
459.0
454.0
466.0
472.0
483.0
498.0
487.0
489.0
494.0
496.0
504.0
491.0
471.0
461.0
331.0
274.0
488.0
745.0
766.0
618.0
513.0
496.0
487.0
479.0
479.0
484.0
469.0
473.0
475.0
474.0
495.0
469.0
435.0
422.0
404.0
396.0
359.0
333.0
334.0
327.0
346.0
365.0
400.0
437.0
476.0
450.0
420.0
459.0
464.0
478.0
490.0
506.0
485.0
405.0
415.0
451.0
472.0
482.0
482.0
480.0
486.0
500.0
501.0
495.0
462.0
448.0
443.0
424.0
419.0
444.0
460.0
469.0
493.0
495.0
499.0
500.0
506.0
511.0
501.0
489.0
446.0
304.0
274.0
529.0
801.0
794.0
626.0
505.0
488.0
493.0
479.0
460.0
459.0
454.0
453.0
451.0
452.0
445.0
443.0
419.0
414.0
398.0
368.0
331.0
318.0
328.0
336.0
356.0
380.0
425.0
458.0
482.0
504.0
502.0
502.0
500.0
483.0
495.0
510.0
521.0
518.0
483.0
487.0
481.0
486.0
494.0
472.0
466.0
459.0
446.0
445.0
435.0
448.0
441.0
447.0
462.0
481.0
482.0
483.0
509.0
526.0
511.0
528.0
543.0
542.0
530.0
527.0
474.0
324.0
320.0
596.0
829.0
787.0
604.0
526.0
496.0
462.0
428.0
405.0
432.0
447.0
442.0
443.0
437.0
408.0
388.0
403.0
385.0
377.0
361.0
347.0
335.0
315.0
326.0
338.0
374.0
413.0
436.0
463.0
480.0
480.0
488.0
492.0
494.0
487.0
484.0
471.0
479.0
471.0
438.0
441.0
434.0
437.0
454.0
467.0
463.0
510.0
519.0
398.0
408.0
429.0
425.0
403.0
415.0
421.0
437.0
441.0
452.0
472.0
493.0
499.0
502.0
508.0
489.0
481.0
469.0
361.0
256.0
403.0
706.0
829.0
693.0
546.0
513.0
492.0
481.0
496.0
486.0
486.0
487.0
472.0
473.0
468.0
446.0
429.0
425.0
413.0
361.0
304.0
298.0
302.0
290.0
295.0
317.0
354.0
409.0
456.0
491.0
478.0
534.0
566.0
549.0
540.0
570.0
532.0
492.0
500.0
491.0
485.0
464.0
472.0
473.0
486.0
479.0
478.0
465.0
470.0
458.0
428.0
418.0
422.0
430.0
434.0
466.0
469.0
434.0
463.0
482.0
484.0
481.0
489.0
471.0
451.0
456.0
410.0
267.0
231.0
496.0
777.0
774.0
576.0
466.0
455.0
447.0
446.0
418.0
411.0
409.0
409.0
385.0
375.0
373.0
361.0
343.0
351.0
326.0
307.0
300.0
270.0
246.0
255.0
253.0
287.0
319.0
361.0
397.0
432.0
456.0
475.0
473.0
468.0
470.0
479.0
482.0
471.0
458.0
460.0
464.0
460.0
460.0
462.0
460.0
457.0
460.0
460.0
468.0
448.0
449.0
418.0
412.0
412.0
398.0
409.0
434.0
458.0
460.0
471.0
495.0
505.0
499.0
485.0
491.0
484.0
480.0
442.0
298.0
237.0
444.0
746.0
816.0
649.0
530.0
506.0
473.0
476.0
465.0
447.0
463.0
453.0
439.0
444.0
446.0
430.0
419.0
402.0
376.0
354.0
344.0
315.0
290.0
288.0
305.0
334.0
384.0
419.0
441.0
463.0
473.0
478.0
485.0
496.0
501.0
496.0
490.0
492.0
482.0
481.0
467.0
456.0
460.0
452.0
458.0
455.0
447.0
442.0
430.0
432.0
419.0
406.0
403.0
417.0
423.0
443.0
450.0
466.0
459.0
450.0
454.0
463.0
454.0
439.0
424.0
432.0
438.0
430.0
350.0
235.0
322.0
633.0
827.0
731.0
549.0
477.0
444.0
419.0
415.0
414.0
405.0
400.0
394.0
392.0
392.0
375.0
367.0
364.0
339.0
319.0
306.0
281.0
273.0
269.0
267.0
291.0
327.0
361.0
399.0
429.0
444.0
440.0
452.0
449.0
441.0
448.0
446.0
446.0
450.0
457.0
461.0
452.0
456.0
468.0
446.0
426.0
441.0
426.0
408.0
427.0
430.0
427.0
423.0
403.0
400.0
414.0
406.0
410.0
431.0
448.0
454.0
462.0
471.0
477.0
464.0
447.0
452.0
436.0
414.0
392.0
273.0
216.0
395.0
708.0
764.0
631.0
480.0
453.0
463.0
437.0
423.0
420.0
399.0
395.0
399.0
397.0
389.0
394.0
388.0
374.0
353.0
320.0
285.0
245.0
201.0
227.0
228.0
263.0
327.0
365.0
385.0
391.0
409.0
413.0
423.0
421.0
416.0
401.0
391.0
415.0
413.0
423.0
426.0
396.0
408.0
404.0
403.0
420.0
428.0
424.0
419.0
419.0
416.0
396.0
415.0
424.0
414.0
414.0
428.0
435.0
450.0
462.0
467.0
472.0
483.0
489.0
509.0
482.0
469.0
428.0
320.0
326.0
595.0
818.0
755.0
578.0
515.0
492.0
473.0
469.0
453.0
441.0
451.0
460.0
463.0
445.0
439.0
432.0
420.0
400.0
376.0
361.0
352.0
357.0
343.0
325.0
337.0
364.0
384.0
414.0
443.0
447.0
441.0
444.0
462.0
493.0
489.0
473.0
476.0
464.0
457.0
439.0
434.0
441.0
447.0
448.0
457.0
468.0
483.0
468.0
460.0
421.0
411.0
447.0
450.0
440.0
464.0
483.0
485.0
485.0
483.0
481.0
495.0
496.0
484.0
469.0
464.0
454.0
348.0
262.0
458.0
761.0
799.0
646.0
499.0
452.0
443.0
417.0
401.0
396.0
388.0
403.0
395.0
402.0
379.0
343.0
336.0
343.0
322.0
299.0
293.0
259.0
255.0
250.0
245.0
268.0
313.0
356.0
386.0
401.0
401.0
423.0
444.0
434.0
427.0
451.0
451.0
453.0
459.0
460.0
465.0
468.0
465.0
456.0
439.0
434.0
445.0
418.0
419.0
436.0
442.0
447.0
482.0
485.0
490.0
509.0
512.0
507.0
526.0
523.0
516.0
514.0
508.0
485.0
362.0
302.0
496.0
787.0
844.0
673.0
528.0
477.0
473.0
472.0
461.0
460.0
453.0
439.0
440.0
441.0
433.0
412.0
407.0
385.0
369.0
352.0
329.0
311.0
311.0
323.0
327.0
351.0
387.0
426.0
446.0
468.0
473.0
484.0
531.0
514.0
488.0
464.0
439.0
442.0
450.0
439.0
436.0
436.0
437.0
444.0
448.0
450.0
435.0
437.0
438.0
433.0
406.0
402.0
418.0
434.0
460.0
438.0
448.0
456.0
482.0
484.0
455.0
467.0
463.0
455.0
446.0
358.0
230.0
315.0
631.0
772.0
679.0
546.0
470.0
407.0
369.0
390.0
414.0
414.0
434.0
436.0
441.0
443.0
434.0
413.0
372.0
359.0
355.0
314.0
295.0
305.0
306.0
323.0
363.0
400.0
440.0
446.0
440.0
455.0
456.0
472.0
484.0
471.0
467.0
471.0
470.0
466.0
473.0
474.0
479.0
459.0
452.0
449.0
434.0
426.0
413.0
429.0
448.0
439.0
428.0
450.0
457.0
452.0
475.0
461.0
456.0
473.0
476.0
450.0
432.0
431.0
417.0
301.0
216.0
375.0
663.0
753.0
609.0
465.0
442.0
422.0
421.0
406.0
393.0
388.0
365.0
360.0
376.0
391.0
383.0
364.0
350.0
338.0
325.0
314.0
290.0
271.0
236.0
240.0
299.0
350.0
396.0
423.0
440.0
453.0
445.0
451.0
460.0
465.0
469.0
462.0
453.0
451.0
445.0
447.0
446.0
430.0
427.0
426.0
418.0
440.0
417.0
422.0
444.0
436.0
444.0
447.0
466.0
452.0
473.0
465.0
452.0
470.0
463.0
468.0
479.0
476.0
435.0
288.0
251.0
488.0
782.0
796.0
611.0
496.0
467.0
469.0
472.0
471.0
466.0
458.0
462.0
459.0
451.0
443.0
429.0
419.0
392.0
371.0
351.0
315.0
281.0
265.0
259.0
265.0
321.0
379.0
418.0
457.0
483.0
491.0
479.0
476.0
486.0
463.0
431.0
406.0
386.0
395.0
428.0
434.0
436.0
451.0
443.0
438.0
422.0
407.0
403.0
387.0
402.0
412.0
427.0
446.0
464.0
478.0
482.0
482.0
477.0
481.0
477.0
484.0
483.0
470.0
423.0
276.0
187.0
398.0
735.0
797.0
634.0
515.0
493.0
482.0
463.0
472.0
433.0
426.0
426.0
376.0
375.0
368.0
343.0
321.0
297.0
263.0
257.0
275.0
242.0
235.0
231.0
221.0
289.0
317.0
343.0
411.0
431.0
437.0
459.0
466.0
463.0
471.0
495.0
464.0
462.0
468.0
429.0
386.0
369.0
382.0
405.0
381.0
356.0
364.0
342.0
345.0
337.0
342.0
361.0
390.0
426.0
433.0
418.0
414.0
411.0
413.0
430.0
457.0
466.0
481.0
435.0
332.0
336.0
572.0
733.0
698.0
623.0
546.0
492.0
461.0
440.0
406.0
380.0
391.0
403.0
397.0
348.0
383.0
419.0
375.0
337.0
327.0
307.0
320.0
317.0
318.0
319.0
312.0
350.0
349.0
379.0
394.0
431.0
472.0
475.0
479.0
499.0
512.0
502.0
481.0
501.0
539.0
504.0
453.0
456.0
420.0
410.0
353.0
309.0
342.0
365.0
388.0
392.0
429.0
474.0
467.0
464.0
483.0
468.0
464.0
466.0
464.0
455.0
462.0
460.0
381.0
224.0
223.0
499.0
673.0
599.0
493.0
477.0
439.0
471.0
515.0
523.0
499.0
438.0
433.0
429.0
413.0
382.0
364.0
336.0
309.0
336.0
320.0
295.0
294.0
286.0
268.0
279.0
307.0
345.0
371.0
392.0
420.0
425.0
452.0
461.0
445.0
471.0
467.0
475.0
471.0
482.0
486.0
481.0
499.0
486.0
461.0
477.0
447.0
427.0
458.0
451.0
469.0
484.0
519.0
512.0
515.0
539.0
524.0
529.0
544.0
526.0
522.0
518.0
494.0
375.0
343.0
554.0
805.0
808.0
662.0
556.0
495.0
473.0
467.0
471.0
475.0
489.0
479.0
465.0
458.0
461.0
451.0
426.0
375.0
351.0
338.0
353.0
326.0
299.0
309.0
335.0
356.0
378.0
430.0
477.0
483.0
464.0
484.0
511.0
497.0
488.0
494.0
485.0
470.0
473.0
463.0
456.0
451.0
434.0
413.0
414.0
389.0
374.0
412.0
404.0
377.0
392.0
434.0
418.0
421.0
403.0
410.0
423.0
412.0
399.0
416.0
433.0
409.0
283.0
179.0
359.0
683.0
779.0
605.0
469.0
435.0
399.0
393.0
405.0
390.0
380.0
384.0
404.0
394.0
382.0
352.0
351.0
329.0
338.0
312.0
306.0
290.0
238.0
259.0
270.0
330.0
370.0
387.0
424.0
447.0
429.0
412.0
424.0
420.0
442.0
463.0
439.0
461.0
441.0
421.0
440.0
424.0
431.0
424.0
413.0
428.0
409.0
428.0
415.0
393.0
379.0
390.0
448.0
435.0
447.0
460.0
471.0
470.0
462.0
476.0
463.0
458.0
349.0
216.0
330.0
642.0
819.0
659.0
510.0
499.0
447.0
451.0
459.0
452.0
441.0
435.0
448.0
431.0
428.0
419.0
401.0
408.0
382.0
350.0
309.0
297.0
284.0
291.0
303.0
326.0
379.0
418.0
442.0
474.0
486.0
496.0
491.0
483.0
481.0
474.0
480.0
481.0
471.0
455.0
446.0
435.0
422.0
423.0
430.0
404.0
376.0
417.0
437.0
433.0
480.0
484.0
504.0
510.0
511.0
520.0
511.0
501.0
512.0
489.0
470.0
412.0
250.0
228.0
497.0
704.0
669.0
529.0
460.0
441.0
423.0
411.0
406.0
402.0
407.0
406.0
401.0
409.0
407.0
408.0
395.0
387.0
362.0
310.0
287.0
278.0
264.0
251.0
252.0
295.0
375.0
378.0
452.0
511.0
492.0
489.0
480.0
473.0
471.0
457.0
478.0
469.0
470.0
463.0
418.0
442.0
460.0
454.0
472.0
451.0
375.0
333.0
353.0
384.0
400.0
421.0
445.0
448.0
442.0
452.0
445.0
446.0
464.0
468.0
448.0
368.0
240.0
258.0
552.0
793.0
689.0
516.0
432.0
386.0
412.0
388.0
396.0
405.0
407.0
409.0
411.0
408.0
398.0
399.0
380.0
348.0
331.0
305.0
290.0
296.0
293.0
305.0
290.0
336.0
397.0
422.0
441.0
463.0
459.0
463.0
475.0
466.0
477.0
476.0
482.0
473.0
477.0
472.0
463.0
438.0
424.0
422.0
415.0
413.0
413.0
429.0
430.0
462.0
479.0
484.0
490.0
517.0
515.0
506.0
512.0
508.0
498.0
492.0
390.0
247.0
329.0
649.0
818.0
715.0
554.0
498.0
466.0
461.0
454.0
445.0
434.0
425.0
420.0
413.0
402.0
395.0
384.0
371.0
355.0
325.0
301.0
289.0
277.0
276.0
276.0
299.0
328.0
380.0
427.0
448.0
482.0
512.0
496.0
467.0
471.0
467.0
467.0
464.0
475.0
457.0
458.0
438.0
433.0
428.0
395.0
412.0
396.0
417.0
422.0
423.0
451.0
424.0
444.0
458.0
480.0
483.0
476.0
471.0
475.0
474.0
473.0
427.0
275.0
297.0
557.0
825.0
768.0
571.0
497.0
453.0
449.0
447.0
432.0
444.0
429.0
429.0
428.0
417.0
412.0
403.0
386.0
354.0
330.0
293.0
278.0
275.0
250.0
265.0
307.0
336.0
387.0
447.0
469.0
479.0
498.0
495.0
491.0
505.0
511.0
492.0
496.0
506.0
503.0
496.0
488.0
475.0
476.0
464.0
435.0
431.0
451.0
447.0
442.0
456.0
475.0
470.0
480.0
482.0
490.0
486.0
483.0
488.0
490.0
483.0
377.0
226.0
323.0
659.0
857.0
744.0
553.0
490.0
475.0
459.0
452.0
450.0
438.0
437.0
429.0
427.0
415.0
394.0
378.0
368.0
342.0
327.0
310.0
283.0
279.0
280.0
279.0
304.0
356.0
404.0
435.0
462.0
474.0
484.0
493.0
490.0
486.0
488.0
493.0
479.0
461.0
448.0
441.0
421.0
428.0
428.0
411.0
414.0
408.0
420.0
441.0
435.0
433.0
463.0
468.0
479.0
473.0
467.0
468.0
481.0
474.0
476.0
471.0
434.0
297.0
196.0
413.0
750.0
815.0
632.0
489.0
459.0
429.0
421.0
419.0
409.0
401.0
410.0
400.0
390.0
380.0
373.0
369.0
348.0
326.0
314.0
274.0
258.0
249.0
255.0
262.0
295.0
332.0
372.0
409.0
433.0
447.0
470.0
463.0
456.0
472.0
435.0
411.0
416.0
434.0
422.0
420.0
418.0
425.0
425.0
419.0
427.0
421.0
415.0
416.0
408.0
414.0
421.0
458.0
450.0
453.0
453.0
467.0
485.0
494.0
484.0
469.0
455.0
379.0
222.0
222.0
533.0
827.0
768.0
569.0
506.0
480.0
474.0
465.0
465.0
469.0
456.0
449.0
445.0
429.0
420.0
405.0
381.0
355.0
337.0
310.0
288.0
283.0
292.0
297.0
313.0
347.0
386.0
427.0
443.0
455.0
460.0
453.0
456.0
462.0
451.0
439.0
434.0
436.0
405.0
395.0
408.0
407.0
413.0
418.0
395.0
371.0
379.0
362.0
382.0
431.0
412.0
382.0
377.0
389.0
402.0
426.0
448.0
473.0
463.0
451.0
462.0
449.0
444.0
337.0
218.0
316.0
631.0
812.0
662.0
490.0
452.0
432.0
430.0
430.0
426.0
417.0
413.0
404.0
408.0
404.0
391.0
386.0
376.0
351.0
322.0
305.0
289.0
282.0
287.0
304.0
325.0
334.0
367.0
413.0
422.0
438.0
455.0
464.0
470.0
455.0
443.0
434.0
434.0
428.0
435.0
443.0
434.0
432.0
427.0
438.0
442.0
426.0
422.0
415.0
406.0
392.0
414.0
428.0
428.0
434.0
451.0
452.0
461.0
471.0
475.0
476.0
471.0
473.0
466.0
438.0
317.0
268.0
488.0
771.0
798.0
603.0
499.0
473.0
463.0
460.0
450.0
440.0
439.0
438.0
425.0
421.0
422.0
414.0
403.0
389.0
371.0
361.0
329.0
315.0
307.0
310.0
327.0
349.0
385.0
427.0
476.0
496.0
496.0
510.0
518.0
503.0
486.0
447.0
401.0
405.0
399.0
382.0
380.0
405.0
422.0
457.0
464.0
451.0
444.0
429.0
423.0
391.0
393.0
415.0
426.0
423.0
431.0
436.0
450.0
448.0
450.0
457.0
456.0
474.0
475.0
464.0
426.0
322.0
347.0
585.0
730.0
705.0
550.0
462.0
451.0
445.0
444.0
450.0
446.0
446.0
443.0
439.0
443.0
437.0
425.0
419.0
394.0
376.0
346.0
318.0
322.0
309.0
305.0
333.0
360.0
395.0
423.0
457.0
478.0
483.0
491.0
486.0
479.0
474.0
472.0
470.0
473.0
471.0
466.0
481.0
473.0
457.0
454.0
448.0
440.0
435.0
425.0
432.0
412.0
423.0
431.0
432.0
444.0
457.0
456.0
466.0
469.0
470.0
470.0
469.0
464.0
461.0
465.0
422.0
289.0
311.0
579.0
765.0
714.0
555.0
478.0
471.0
459.0
455.0
455.0
452.0
433.0
422.0
421.0
409.0
411.0
397.0
380.0
367.0
350.0
340.0
328.0
319.0
311.0
316.0
336.0
356.0
376.0
414.0
440.0
454.0
468.0
469.0
454.0
455.0
455.0
439.0
432.0
429.0
428.0
427.0
441.0
440.0
435.0
434.0
429.0
423.0
416.0
401.0
399.0
401.0
384.0
377.0
391.0
395.0
403.0
420.0
429.0
430.0
439.0
438.0
445.0
449.0
452.0
450.0
439.0
401.0
280.0
225.0
422.0
694.0
750.0
602.0
488.0
471.0
452.0
444.0
436.0
432.0
425.0
419.0
414.0
414.0
410.0
403.0
393.0
382.0
365.0
346.0
328.0
313.0
318.0
314.0
321.0
345.0
376.0
411.0
438.0
453.0
477.0
483.0
493.0
495.0
488.0
485.0
478.0
478.0
470.0
465.0
456.0
466.0
462.0
452.0
466.0
471.0
469.0
462.0
462.0
457.0
442.0
419.0
430.0
440.0
424.0
450.0
472.0
486.0
486.0
485.0
493.0
502.0
491.0
498.0
492.0
486.0
452.0
317.0
286.0
523.0
790.0
795.0
623.0
510.0
482.0
472.0
468.0
459.0
457.0
454.0
451.0
448.0
443.0
437.0
427.0
406.0
391.0
368.0
342.0
320.0
314.0
318.0
318.0
319.0
341.0
376.0
412.0
445.0
460.0
483.0
482.0
481.0
488.0
486.0
474.0
461.0
458.0
455.0
450.0
448.0
442.0
445.0
441.0
446.0
445.0
434.0
440.0
439.0
425.0
423.0
406.0
399.0
403.0
414.0
424.0
443.0
459.0
460.0
463.0
475.0
473.0
468.0
472.0
466.0
466.0
442.0
323.0
230.0
380.0
684.0
799.0
644.0
494.0
458.0
449.0
448.0
437.0
445.0
446.0
438.0
424.0
419.0
410.0
393.0
382.0
361.0
342.0
320.0
300.0
288.0
281.0
287.0
298.0
313.0
348.0
390.0
420.0
447.0
466.0
472.0
469.0
476.0
465.0
458.0
448.0
443.0
440.0
434.0
436.0
433.0
438.0
436.0
435.0
446.0
449.0
452.0
446.0
447.0
452.0
441.0
444.0
447.0
422.0
438.0
448.0
448.0
440.0
478.0
478.0
485.0
498.0
520.0
504.0
489.0
512.0
516.0
502.0
457.0
339.0
291.0
553.0
828.0
816.0
625.0
521.0
496.0
488.0
481.0
455.0
463.0
454.0
467.0
446.0
444.0
435.0
417.0
400.0
391.0
371.0
348.0
329.0
307.0
312.0
305.0
297.0
346.0
364.0
411.0
450.0
460.0
480.0
488.0
483.0
488.0
474.0
476.0
449.0
448.0
435.0
440.0
447.0
460.0
456.0
442.0
462.0
460.0
461.0
448.0
441.0
445.0
422.0
414.0
408.0
393.0
395.0
399.0
406.0
446.0
454.0
433.0
444.0
457.0
453.0
445.0
453.0
448.0
449.0
415.0
279.0
188.0
392.0
730.0
814.0
625.0
486.0
459.0
440.0
434.0
429.0
413.0
412.0
419.0
409.0
394.0
389.0
401.0
383.0
359.0
352.0
320.0
292.0
296.0
302.0
303.0
306.0
329.0
375.0
400.0
432.0
458.0
475.0
459.0
481.0
489.0
483.0
470.0
431.0
420.0
414.0
412.0
419.0
416.0
430.0
425.0
433.0
444.0
440.0
441.0
439.0
428.0
422.0
418.0
410.0
404.0
419.0
420.0
419.0
442.0
463.0
457.0
463.0
464.0
460.0
466.0
474.0
471.0
472.0
461.0
364.0
265.0
365.0
674.0
837.0
689.0
527.0
478.0
457.0
448.0
443.0
430.0
423.0
424.0
422.0
418.0
427.0
417.0
392.0
381.0
365.0
339.0
312.0
298.0
295.0
301.0
312.0
329.0
355.0
393.0
423.0
441.0
462.0
465.0
472.0
483.0
477.0
480.0
475.0
462.0
457.0
456.0
450.0
445.0
450.0
448.0
450.0
455.0
455.0
457.0
458.0
451.0
447.0
442.0
432.0
427.0
407.0
418.0
421.0
419.0
429.0
449.0
454.0
450.0
461.0
459.0
463.0
468.0
457.0
460.0
447.0
408.0
299.0
261.0
469.0
757.0
785.0
602.0
479.0
441.0
421.0
424.0
417.0
421.0
423.0
417.0
410.0
412.0
409.0
412.0
405.0
379.0
345.0
340.0
306.0
291.0
291.0
296.0
306.0
334.0
376.0
392.0
423.0
450.0
453.0
465.0
470.0
472.0
475.0
472.0
464.0
452.0
437.0
432.0
435.0
434.0
435.0
431.0
427.0
432.0
438.0
430.0
443.0
441.0
439.0
441.0
436.0
441.0
418.0
388.0
412.0
415.0
433.0
456.0
479.0
495.0
515.0
518.0
505.0
499.0
497.0
495.0
491.0
461.0
375.0
331.0
436.0
693.0
789.0
676.0
529.0
487.0
473.0
467.0
451.0
451.0
445.0
455.0
451.0
449.0
443.0
436.0
431.0
426.0
400.0
376.0
353.0
322.0
294.0
276.0
284.0
298.0
333.0
369.0
403.0
432.0
451.0
467.0
472.0
454.0
444.0
446.0
429.0
424.0
430.0
432.0
431.0
433.0
432.0
439.0
435.0
433.0
441.0
438.0
437.0
438.0
427.0
421.0
418.0
418.0
390.0
394.0
413.0
420.0
426.0
458.0
464.0
456.0
463.0
460.0
470.0
464.0
463.0
455.0
453.0
436.0
368.0
352.0
526.0
702.0
723.0
610.0
507.0
471.0
427.0
419.0
417.0
424.0
434.0
418.0
427.0
432.0
443.0
437.0
415.0
408.0
368.0
330.0
327.0
294.0
286.0
295.0
296.0
319.0
363.0
387.0
419.0
448.0
462.0
455.0
459.0
462.0
459.0
447.0
444.0
434.0
435.0
432.0
427.0
440.0
448.0
447.0
450.0
449.0
458.0
456.0
447.0
443.0
445.0
440.0
417.0
420.0
420.0
421.0
434.0
446.0
452.0
463.0
460.0
463.0
465.0
466.0
459.0
460.0
462.0
448.0
360.0
277.0
401.0
685.0
802.0
651.0
501.0
458.0
440.0
437.0
438.0
428.0
422.0
419.0
418.0
416.0
404.0
383.0
378.0
377.0
348.0
319.0
309.0
300.0
297.0
300.0
313.0
339.0
356.0
385.0
419.0
444.0
462.0
469.0
466.0
462.0
460.0
459.0
452.0
441.0
443.0
445.0
447.0
452.0
464.0
479.0
469.0
462.0
463.0
453.0
458.0
445.0
427.0
427.0
419.0
405.0
408.0
412.0
417.0
433.0
441.0
442.0
458.0
460.0
471.0
480.0
482.0
495.0
498.0
484.0
444.0
310.0
312.0
571.0
818.0
797.0
613.0
521.0
508.0
487.0
471.0
467.0
464.0
455.0
455.0
454.0
459.0
451.0
444.0
428.0
403.0
378.0
350.0
327.0
322.0
327.0
327.0
340.0
365.0
403.0
439.0
475.0
496.0
502.0
501.0
506.0
505.0
506.0
511.0
506.0
500.0
491.0
480.0
469.0
460.0
453.0
456.0
454.0
461.0
466.0
456.0
451.0
449.0
444.0
422.0
430.0
436.0
417.0
421.0
436.0
437.0
449.0
458.0
462.0
465.0
476.0
489.0
498.0
492.0
486.0
399.0
290.0
353.0
634.0
810.0
721.0
540.0
482.0
468.0
446.0
441.0
442.0
440.0
436.0
429.0
427.0
422.0
412.0
395.0
391.0
379.0
352.0
313.0
309.0
294.0
292.0
309.0
328.0
362.0
406.0
440.0
463.0
472.0
484.0
493.0
503.0
499.0
503.0
496.0
491.0
486.0
474.0
463.0
459.0
465.0
464.0
463.0
463.0
468.0
470.0
478.0
476.0
466.0
477.0
470.0
467.0
448.0
441.0
458.0
467.0
464.0
479.0
489.0
499.0
500.0
497.0
498.0
499.0
494.0
490.0
490.0
482.0
420.0
307.0
320.0
600.0
846.0
804.0
607.0
521.0
492.0
471.0
461.0
454.0
442.0
441.0
434.0
431.0
426.0
418.0
414.0
408.0
390.0
368.0
340.0
325.0
319.0
316.0
320.0
342.0
365.0
406.0
444.0
473.0
487.0
492.0
504.0
498.0
495.0
499.0
497.0
499.0
492.0
484.0
473.0
475.0
469.0
467.0
473.0
479.0
483.0
490.0
482.0
478.0
470.0
465.0
468.0
439.0
447.0
458.0
468.0
471.0
485.0
495.0
498.0
501.0
505.0
508.0
508.0
511.0
507.0
497.0
487.0
402.0
285.0
345.0
642.0
837.0
757.0
572.0
509.0
491.0
479.0
471.0
464.0
464.0
